1100.000000	25.791000 
1098.000000	25.424000 
1096.000000	24.865000 
1094.000000	24.258000 
1092.000000	23.666000 
1090.000000	23.153000 
1088.000000	22.217000 
1086.000000	21.561000 
1084.000000	20.902000 
1082.000000	20.006000 
1080.000000	19.205000 
1078.000000	18.427000 
1076.000000	17.565000 
1074.000000	16.715000 
1072.000000	15.905000 
1070.000000	15.076000 
1068.000000	14.383000 
1066.000000	13.609000 
1064.000000	12.822000 
1062.000000	12.070000 
1060.000000	11.376000 
1058.000000	10.686000 
1056.000000	10.028000 
1054.000000	9.524000  
1052.000000	9.090000  
1050.000000	8.670000  
1048.000000	8.398999  
1046.000000	8.193999  
1044.000000	8.065000  
1042.000000	8.060000  
1040.000000	8.113000  
1038.000000	8.240000  
1036.000000	8.500000  
1034.000000	8.790000  
1032.000000	9.161000  
1030.000000	9.554000  
1028.000000	10.095000 
1026.000000	10.658000 
1024.000000	11.255000 
1022.000000	11.944000 
1020.000000	12.668000 
1018.000000	13.403000 
1016.000000	14.117000 
1014.000000	14.896000 
1012.000000	15.617000 
1010.000000	16.365000 
1008.000000	17.035000 
1006.000000	17.771000 
1004.000000	18.382000 
1002.000000	19.024000 
1000.000000	19.570000 
998.000000	 20.045000 
996.000000	 20.442000 
994.000000	 20.785000 
992.000000	 21.050000 
990.000000	 21.249000 
988.000000	 21.294000 
986.000000	 21.285000 
984.000000	 21.185000 
982.000000	 21.005000 
980.000000	 20.736000 
978.000000	 20.367000 
976.000000	 19.956000 
974.000000	 19.427000 
972.000000	 18.841000 
970.000000	 18.241000 
968.000000	 17.500000 
966.000000	 16.765000 
964.000000	 15.982000 
962.000000	 15.170000 
960.000000	 14.353000 
958.000000	 13.522000 
956.000000	 12.700000 
954.000000	 11.934000 
952.000000	 11.174000 
950.000000	 10.520000 
948.000000	 9.865000  
946.000000	 9.308000  
944.000000	 8.817000  
942.000000	 8.427000  
940.000000	 8.140000  
938.000000	 7.942000  
936.000000	 7.878000  
934.000000	 7.896000  
932.000000	 8.081000  
930.000000	 8.359999  
928.000000	 8.763999  
926.000000	 9.304000  
924.000000	 9.950000  
922.000000	 10.753000 
920.000000	 11.646000 
918.000000	 12.690000 
916.000000	 13.852000 
914.000000	 15.118000 
912.000000	 16.379000 
910.000000	 17.630000 
908.000000	 18.867000 
906.000000	 19.953000 
904.000000	 20.918000 
902.000000	 21.742000 
900.000000	 22.454000 
898.000000	 23.037000 
896.000000	 23.467000 
894.000000	 23.734000 
892.000000	 23.891000 
890.000000	 23.859000 
888.000000	 23.741000 
886.000000	 23.421000 
884.000000	 22.883000 
882.000000	 22.066000 
880.000000	 21.300000 
878.000000	 20.603000 
876.000000	 19.806000 
874.000000	 18.871000 
872.000000	 17.861000 
870.000000	 16.842000 
868.000000	 15.769000 
866.000000	 14.753000 
864.000000	 13.746000 
862.000000	 12.808000 
860.000000	 11.997000 
858.000000	 11.237000 
856.000000	 10.669000 
854.000000	 10.250000 
852.000000	 10.021000 
850.000000	 10.002000 
848.000000	 10.179000 
846.000000	 10.575000 
844.000000	 11.195000 
842.000000	 11.982000 
840.000000	 12.998000 
838.000000	 14.134000 
836.000000	 15.386000 
834.000000	 16.758000 
832.000000	 18.135000 
830.000000	 19.551000 
828.000000	 20.960000 
826.000000	 22.303000 
824.000000	 23.498000 
822.000000	 24.591000 
820.000000	 25.467000 
818.000000	 26.172000 
816.000000	 26.645000 
814.000000	 26.910000 
812.000000	 26.929000 
810.000000	 26.705000 
808.000000	 26.322000 
806.000000	 25.679000 
804.000000	 24.834000 
802.000000	 23.791000 
800.000000	 22.603000 
798.000000	 21.296000 
796.000000	 19.950000 
794.000000	 18.387000 
792.000000	 17.013000 
790.000000	 15.753000 
788.000000	 14.565000 
786.000000	 13.522000 
784.000000	 12.698000 
782.000000	 12.099000 
780.000000	 11.794000 
778.000000	 11.865000 
776.000000	 12.181000 
774.000000	 12.833000 
772.000000	 13.790000 
770.000000	 15.023000 
768.000000	 16.475000 
766.000000	 18.074000 
764.000000	 19.858000 
762.000000	 21.621000 
760.000000	 23.300000 
758.000000	 24.954000 
756.000000	 26.436000 
754.000000	 27.663000 
752.000000	 28.628000 
750.000000	 29.266000 
748.000000	 29.616000 
746.000000	 29.595000 
744.000000	 29.243000 
742.000000	 28.573000 
740.000000	 27.619000 
738.000000	 26.359000 
736.000000	 24.905000 
734.000000	 23.282000 
732.000000	 21.584000 
730.000000	 19.847000 
728.000000	 18.170000 
726.000000	 16.643000 
724.000000	 15.368000 
722.000000	 14.464000 
720.000000	 13.982000 
718.000000	 13.959000 
716.000000	 14.438000 
714.000000	 15.405000 
712.000000	 16.801000 
710.000000	 18.578000 
708.000000	 20.635000 
706.000000	 22.873000 
704.000000	 25.140000 
702.000000	 27.322000 
700.000000	 29.307000 
698.000000	 30.988000 
696.000000	 32.286000 
694.000000	 33.117999 
692.000000	 33.482000 
690.000000	 33.329000 
688.000000	 32.720000 
686.000000	 31.649000 
684.000000	 30.204000 
682.000000	 28.395000 
680.000000	 26.324000 
678.000000	 24.166000 
676.000000	 21.937000 
674.000000	 19.926000 
672.000000	 18.259000 
670.000000	 17.093000 
668.000000	 16.579000 
666.000000	 16.809000 
664.000000	 17.793000 
662.000000	 19.483000 
660.000000	 21.814000 
658.000000	 24.460000 
656.000000	 27.370000 
654.000000	 30.187000 
652.000000	 32.832000 
650.000000	 35.069000 
648.000000	 36.715000 
646.000000	 37.726000 
644.000000	 38.088000 
642.000000	 37.675000 
640.000000	 36.608000 
638.000000	 34.877000 
636.000000	 32.601000 
634.000000	 29.933000 
632.000000	 27.094000 
630.000000	 24.297000 
628.000000	 21.886000 
626.000000	 20.153000 
624.000000	 19.294000 
622.000000	 19.518000 
620.000000	 20.871000 
618.000000	 23.208000 
616.000000	 26.305000 
614.000000	 29.840000 
612.000000	 33.514000 
610.000000	 36.834000 
608.000000	 39.509000 
606.000000	 41.368000 
604.000000	 42.264000 
602.000000	 42.188000 
600.000000	 41.128000 
598.000000	 39.217000 
596.000000	 36.541000 
594.000000	 33.308000 
592.000000	 29.878000 
590.000000	 26.622000 
588.000000	 23.971000 
586.000000	 22.502000 
584.000000	 22.535000 
582.000000	 24.285000 
580.000000	 27.485000 
578.000000	 31.723000 
576.000000	 36.299000 
574.000000	 40.600000 
572.000000	 44.056000 
570.000000	 46.347000 
568.000000	 47.308000 
566.000000	 46.955000 
564.000000	 45.294000 
562.000000	 42.328000 
560.000000	 38.502000 
558.000000	 34.176000 
556.000000	 29.655000 
554.000000	 26.248000 
552.000000	 24.612000 
550.000000	 25.276000 
548.000000	 28.195000 
546.000000	 32.968000 
544.000000	 38.464000 
542.000000	 43.807000 
540.000000	 47.879000 
538.000000	 50.479000 
536.000000	 51.197000 
534.000000	 50.077000 
532.000000	 47.177000 
530.000000	 42.789000 
528.000000	 37.380000 
526.000000	 31.869000 
524.000000	 27.645000 
522.000000	 25.965000 
520.000000	 27.591000 
518.000000	 32.292000 
516.000000	 38.663000 
514.000000	 45.108000 
512.000000	 50.221000 
510.000000	 53.238000 
508.000000	 53.750000 
506.000000	 51.731000 
504.000000	 47.401000 
502.000000	 41.385000 
500.000000	 34.648000 
498.000000	 28.946000 
496.000000	 26.406000 
494.000000	 28.250000 
492.000000	 34.039000 
490.000000	 41.917000 
488.000000	 49.096000 
486.000000	 53.969000 
484.000000	 55.763000 
482.000000	 54.176000 
480.000000	 49.372000 
478.000000	 42.211000 
476.000000	 34.250000 
474.000000	 28.266000 
472.000000	 26.790000 
470.000000	 31.112000 
468.000000	 39.542000 
466.000000	 48.405000 
464.000000	 54.952000 
462.000000	 57.408000 
460.000000	 55.313000 
458.000000	 49.040000 
456.000000	 39.902000 
454.000000	 30.744000 
452.000000	 26.154000 
450.000000	 29.033000 
448.000000	 37.940000 
446.000000	 48.328000 
444.000000	 55.779999 
442.000000	 58.002000 
440.000000	 54.554000 
438.000000	 46.121000 
436.000000	 34.786000 
434.000000	 26.004000 
432.000000	 25.485000 
430.000000	 34.144000 
428.000000	 46.180000 
426.000000	 54.801000 
424.000000	 56.623000 
422.000000	 51.227000 
420.000000	 40.134000 
418.000000	 27.775000 
416.000000	 22.338000 
414.000000	 28.302000 
412.000000	 41.481000 
410.000000	 52.455000 
408.000000	 55.603000 
406.000000	 49.291000 
404.000000	 35.753000 
402.000000	 22.449000 
400.000000	 20.379000 
398.000000	 32.024000 
396.000000	 46.916999 
394.000000	 53.700000 
392.000000	 48.722000 
390.000000	 34.327000 
388.000000	 19.835000 
386.000000	 18.468000 
384.000000	 32.823000 
382.000000	 47.479000 
380.000000	 51.070000 
378.000000	 39.856000 
376.000000	 20.830000 
374.000000	 12.994000 
372.000000	 27.055000 
370.000000	 45.428000 
368.000000	 47.363000 
366.000000	 31.890000 
364.000000	 14.368000 
362.000000	 14.941000 
360.000000	 31.852000 
358.000000	 42.221000 
356.000000	 33.936000 
354.000000	 17.045000 
352.000000	 11.763000 
350.000000	 24.264000 
348.000000	 35.777000 
346.000000	 29.746000 
344.000000	 14.620000 
342.000000	 12.656000 
340.000000	 25.691000 
338.000000	 31.417000 
336.000000	 20.432000 
334.000000	 11.270000 
332.000000	 18.922000 
330.000000	 29.227000 
328.000000	 23.218000 
326.000000	 13.318000 
324.000000	 19.090000 
322.000000	 31.663000 
320.000000	 25.737000 
318.000000	 14.372000 
316.000000	 23.169000 
314.000000	 32.993000 
312.000000	 21.848000 
310.000000	 18.199000 
308.000000	 32.286000 
306.000000	 30.620000 
304.000000	 19.147000 
302.000000	 30.328000 
300.000000	 36.714000 
298.000000	 23.499000 
296.000000	 30.515000 
294.000000	 40.099000 
292.000000	 27.123000 
290.000000	 34.602000 
288.000000	 41.784000 
286.000000	 29.330000 
284.000000	 42.513000 
282.000000	 38.757000 
280.000000	 36.055000 
278.000000	 46.228000 
276.000000	 35.932000 
274.000000	 46.494000 
272.000000	 40.008000 
270.000000	 44.418000 
268.000000	 43.042000 
266.000000	 43.033000 
264.000000	 43.808000 
262.000000	 42.739000 
260.000000	 42.400000 
258.000000	 42.268000 
256.000000	 39.884000 
254.000000	 40.592000 
252.000000	 37.324000 
250.000000	 36.494000 
248.000000	 34.631000 
246.000000	 31.801000 
244.000000	 29.674000 
242.000000	 27.375000 
240.000000	 24.719000 
238.000000	 22.229000 
236.000000	 20.136000 
234.000000	 18.412000 
232.000000	 17.297000 
230.000000	 17.026000 
228.000000	 17.812000 
226.000000	 19.819000 
224.000000	 23.149000 
222.000000	 27.362000 
220.000000	 31.907000 
218.000000	 35.915000 
216.000000	 38.404000 
214.000000	 38.494000 
212.000000	 36.587000 
210.000000	 35.101000 
208.000000	 34.496000 
206.000000	 34.288000 
204.000000	 34.249000 
202.000000	 34.285000 
200.000000	 34.325000 

