3.000000000000000000e+02 4.622294190837762073e+01
3.010000000000000000e+02 4.054518289949320575e+01
3.020000000000000000e+02 2.093240578266394181e+01
3.030000000000000000e+02 1.316641472534552326e+00
3.040000000000000000e+02 1.014326574417010463e+01
3.050000000000000000e+02 2.907220656126460057e+01
3.060000000000000000e+02 4.061606458203338121e+01
3.070000000000000000e+02 4.358862503631389984e+01
3.080000000000000000e+02 3.778906224009659098e+01
3.090000000000000000e+02 2.207954038360053772e+01
3.100000000000000000e+02 4.383497580739334154e+00
3.110000000000000000e+02 5.983727932207792755e+00
3.120000000000000000e+02 2.179686066499726493e+01
3.130000000000000000e+02 3.463195392678394313e+01
3.140000000000000000e+02 4.071989900683158226e+01
3.150000000000000000e+02 4.058672082050916430e+01
3.160000000000000000e+02 3.408583822508776962e+01
3.170000000000000000e+02 2.104481366992701652e+01
3.180000000000000000e+02 6.819667671447293245e+00
3.190000000000000000e+02 4.889007655991707502e+00
3.200000000000000000e+02 1.640394149197913265e+01
3.210000000000000000e+02 2.899399771729023101e+01
3.220000000000000000e+02 3.680340079527746866e+01
3.230000000000000000e+02 3.954199556249174918e+01
3.240000000000000000e+02 3.762173836139702843e+01
3.250000000000000000e+02 3.096114685146045176e+01
3.260000000000000000e+02 1.987225708590845130e+01
3.270000000000000000e+02 8.219265855960230738e+00
3.280000000000000000e+02 4.853262746677029504e+00
3.290000000000000000e+02 1.281828183209832517e+01
3.300000000000000000e+02 2.425898914846385068e+01
3.310000000000000000e+02 3.280804687640125650e+01
3.320000000000000000e+02 3.709049600609257169e+01
3.330000000000000000e+02 3.740488671551239719e+01
3.340000000000000000e+02 3.397342435340496536e+01
3.350000000000000000e+02 2.678904880575160874e+01
3.360000000000000000e+02 1.659091088848913387e+01
3.370000000000000000e+02 7.096325663694802444e+00
3.380000000000000000e+02 5.038182636639613854e+00
3.390000000000000000e+02 1.231712220939168390e+01
3.400000000000000000e+02 2.280049499032386606e+01
3.410000000000000000e+02 3.098695662015603247e+01
3.420000000000000000e+02 3.534478119858431455e+01
3.430000000000000000e+02 3.604221813273809971e+01
3.440000000000000000e+02 3.335993186020617429e+01
3.450000000000000000e+02 2.738883440668627500e+01
3.460000000000000000e+02 1.853723793126038544e+01
3.470000000000000000e+02 8.946424351040329626e+00
3.480000000000000000e+02 3.673643833501111011e+00
3.490000000000000000e+02 7.056109794555963433e+00
3.500000000000000000e+02 1.651430125897234547e+01
3.510000000000000000e+02 2.598226157121889912e+01
3.520000000000000000e+02 3.224297929529792128e+01
3.530000000000000000e+02 3.483321955909885759e+01
3.540000000000000000e+02 3.409013515240165759e+01
3.550000000000000000e+02 3.029826500907086739e+01
3.560000000000000000e+02 2.365869910917495034e+01
3.570000000000000000e+02 1.482751641457257286e+01
3.580000000000000000e+02 6.111621006924700339e+00
3.590000000000000000e+02 2.073467535447014676e+00
3.600000000000000000e+02 6.059632065994597028e+00
3.610000000000000000e+02 1.544718549768549565e+01
3.620000000000000000e+02 2.473333925894129592e+01
3.630000000000000000e+02 3.088501289071594513e+01
3.640000000000000000e+02 3.345449457407740113e+01
3.650000000000000000e+02 3.284083248846643244e+01
3.660000000000000000e+02 2.943384834318997179e+01
3.670000000000000000e+02 2.354417062823494788e+01
3.680000000000000000e+02 1.573211577060955690e+01
3.690000000000000000e+02 7.490379163162427467e+00
3.700000000000000000e+02 1.834910441316740082e+00
3.710000000000000000e+02 2.066846232724818044e+00
3.720000000000000000e+02 8.354827514668173194e+00
3.730000000000000000e+02 1.709036463020663987e+01
3.740000000000000000e+02 2.457493214912567581e+01
3.750000000000000000e+02 2.921703465059099969e+01
3.760000000000000000e+02 3.088300268757321732e+01
3.770000000000000000e+02 2.990232977809863613e+01
3.780000000000000000e+02 2.664775113823076325e+01
3.790000000000000000e+02 2.149922309811367782e+01
3.800000000000000000e+02 1.501512150686533609e+01
3.810000000000000000e+02 8.227653264312937864e+00
3.820000000000000000e+02 2.831382343603437324e+00
3.830000000000000000e+02 7.783514495411447687e-01
3.840000000000000000e+02 3.035637299586391613e+00
3.850000000000000000e+02 8.615738849436796798e+00
3.860000000000000000e+02 1.527742382645344321e+01
3.870000000000000000e+02 2.103108561736697979e+01
3.880000000000000000e+02 2.483716960604009216e+01
3.890000000000000000e+02 2.643620846958993198e+01
3.900000000000000000e+02 2.596210317155902558e+01
3.910000000000000000e+02 2.368185925314428886e+01
3.920000000000000000e+02 1.991187717109423971e+01
3.930000000000000000e+02 1.506501258154706058e+01
3.940000000000000000e+02 9.751686921834515687e+00
3.950000000000000000e+02 4.854389550009054588e+00
3.960000000000000000e+02 1.455694274245812547e+00
3.970000000000000000e+02 5.097340131699089616e-01
3.980000000000000000e+02 2.348443629861704629e+00
3.990000000000000000e+02 6.420440688092940107e+00
4.000000000000000000e+02 1.155206804183050195e+01
4.010000000000000000e+02 1.650366604689168426e+01
4.020000000000000000e+02 2.038456887363811276e+01
4.030000000000000000e+02 2.275086120272678158e+01
4.040000000000000000e+02 2.348862023968405310e+01
4.050000000000000000e+02 2.267078187374024267e+01
4.060000000000000000e+02 2.047773822010263700e+01
4.070000000000000000e+02 1.717461485423284984e+01
4.080000000000000000e+02 1.311761890284263643e+01
4.090000000000000000e+02 8.781926542314208106e+00
4.100000000000000000e+02 4.776610947385520944e+00
4.110000000000000000e+02 1.787789844635686354e+00
4.120000000000000000e+02 4.232673893222661521e-01
4.130000000000000000e+02 1.000755375925148627e+00
4.140000000000000000e+02 3.398999951739346770e+00
4.150000000000000000e+02 7.085949677748082820e+00
4.160000000000000000e+02 1.131439462147682029e+01
4.170000000000000000e+02 1.535702844599603445e+01
4.180000000000000000e+02 1.866125567842841448e+01
4.190000000000000000e+02 2.089015295827986662e+01
4.200000000000000000e+02 2.189124919531885283e+01
4.210000000000000000e+02 2.164676847599095666e+01
4.220000000000000000e+02 2.023568265494289520e+01
4.230000000000000000e+02 1.781525349382677348e+01
4.240000000000000000e+02 1.462187849947071427e+01
4.250000000000000000e+02 1.097991742910892832e+01
4.260000000000000000e+02 7.300198673040545039e+00
4.270000000000000000e+02 4.054130404724000769e+00
4.280000000000000000e+02 1.715309578250289624e+00
4.290000000000000000e+02 6.657652275083281168e-01
4.300000000000000000e+02 1.092217384855884266e+00
4.310000000000000000e+02 2.922016887498105397e+00
4.320000000000000000e+02 5.838659419204411449e+00
4.330000000000000000e+02 9.373830308754490304e+00
4.340000000000000000e+02 1.303071167751731174e+01
4.350000000000000000e+02 1.638303410537436022e+01
4.360000000000000000e+02 1.911479466004259820e+01
4.370000000000000000e+02 2.101551551227228387e+01
4.380000000000000000e+02 2.196390707544514242e+01
4.390000000000000000e+02 2.191882113184788849e+01
4.400000000000000000e+02 2.091132810706747946e+01
4.410000000000000000e+02 1.903394837886278523e+01
4.420000000000000000e+02 1.643163223790656602e+01
4.430000000000000000e+02 1.330988543499666754e+01
4.440000000000000000e+02 9.948692631257415542e+00
4.450000000000000000e+02 6.705754953708656707e+00
4.460000000000000000e+02 3.975196288313727955e+00
4.470000000000000000e+02 2.118900586173971590e+00
4.480000000000000000e+02 1.390913481744130209e+00
4.490000000000000000e+02 1.894485332157496593e+00
4.500000000000000000e+02 3.561200852558195962e+00
4.510000000000000000e+02 6.157593587619059505e+00
4.520000000000000000e+02 9.335672436082713688e+00
4.530000000000000000e+02 1.271479169632350548e+01
4.540000000000000000e+02 1.595653461487171398e+01
4.550000000000000000e+02 1.879929515815778629e+01
4.560000000000000000e+02 2.105560274574292734e+01
4.570000000000000000e+02 2.260100881601269407e+01
4.580000000000000000e+02 2.336245577513264138e+01
4.590000000000000000e+02 2.331128629689553833e+01
4.600000000000000000e+02 2.245779771639463007e+01
4.610000000000000000e+02 2.085093760064437163e+01
4.620000000000000000e+02 1.858451576288224771e+01
4.630000000000000000e+02 1.580621592303905842e+01
4.640000000000000000e+02 1.272194464614763199e+01
4.650000000000000000e+02 9.593196330889240286e+00
4.660000000000000000e+02 6.727602565931883660e+00
4.670000000000000000e+02 4.450803053984372148e+00
4.680000000000000000e+02 3.057989821167271582e+00
4.690000000000000000e+02 2.737057134953264192e+00
4.700000000000000000e+02 3.517137865355032922e+00
4.710000000000000000e+02 5.271721447275171002e+00
4.720000000000000000e+02 7.774027717112537594e+00
4.730000000000000000e+02 1.075105995916691093e+01
4.740000000000000000e+02 1.392389250840868087e+01
4.750000000000000000e+02 1.702099987426474570e+01
4.760000000000000000e+02 1.981117636572402674e+01
4.770000000000000000e+02 2.212563452766256233e+01
4.780000000000000000e+02 2.386145284584115345e+01
4.790000000000000000e+02 2.497145343002837947e+01
4.800000000000000000e+02 2.543258142371101016e+01
4.810000000000000000e+02 2.523402329043196346e+01
4.820000000000000000e+02 2.437838453728788579e+01
4.830000000000000000e+02 2.289537491941397818e+01
4.840000000000000000e+02 2.085064756439779643e+01
4.850000000000000000e+02 1.835226486107471899e+01
4.860000000000000000e+02 1.554999253409837223e+01
4.870000000000000000e+02 1.263675944588427136e+01
4.880000000000000000e+02 9.845962006354422869e+00
4.890000000000000000e+02 7.433835228591630262e+00
4.900000000000000000e+02 5.647852025746044724e+00
4.910000000000000000e+02 4.683656117917381678e+00
4.920000000000000000e+02 4.646339666253680001e+00
4.930000000000000000e+02 5.529764365626671285e+00
4.940000000000000000e+02 7.220600483348621701e+00
4.950000000000000000e+02 9.526386712886365515e+00
4.960000000000000000e+02 1.221657877215952048e+01
4.970000000000000000e+02 1.506243329085069860e+01
4.980000000000000000e+02 1.786589937495255143e+01
4.990000000000000000e+02 2.046866340884217905e+01
5.000000000000000000e+02 2.275185055619352426e+01
5.010000000000000000e+02 2.462947090757040414e+01
5.020000000000000000e+02 2.604086149973636566e+01
5.030000000000000000e+02 2.694940732715208753e+01
5.040000000000000000e+02 2.733840140616679548e+01
5.050000000000000000e+02 2.720758368964711948e+01
5.060000000000000000e+02 2.656832981612390299e+01
5.070000000000000000e+02 2.543992245055081014e+01
5.080000000000000000e+02 2.385218906085034973e+01
5.090000000000000000e+02 2.185237265356036573e+01
5.100000000000000000e+02 1.952003518307982688e+01
5.110000000000000000e+02 1.697228650987906917e+01
5.120000000000000000e+02 1.436240429049603051e+01
5.130000000000000000e+02 1.187177209784559473e+01
5.140000000000000000e+02 9.688886670329768691e+00
5.150000000000000000e+02 7.991609338544342300e+00
5.160000000000000000e+02 6.927267223612630254e+00
5.170000000000000000e+02 6.590281267288214728e+00
5.180000000000000000e+02 7.006316039439385079e+00
5.190000000000000000e+02 8.125687777538018963e+00
5.200000000000000000e+02 9.833414751892965100e+00
5.210000000000000000e+02 1.197241247939440356e+01
5.220000000000000000e+02 1.437097835594725836e+01
5.230000000000000000e+02 1.686744068924985740e+01
5.240000000000000000e+02 1.932228612089298991e+01
5.250000000000000000e+02 2.162308923414212458e+01
5.260000000000000000e+02 2.368412148424341979e+01
5.270000000000000000e+02 2.544131987994499156e+01
5.280000000000000000e+02 2.684964348036684711e+01
5.290000000000000000e+02 2.788089918503352393e+01
5.300000000000000000e+02 2.852008862928738608e+01
5.310000000000000000e+02 2.876281070763687708e+01
5.320000000000000000e+02 2.861282980233125883e+01
5.330000000000000000e+02 2.807928523353801964e+01
5.340000000000000000e+02 2.717675123187099828e+01
5.350000000000000000e+02 2.592661792877061799e+01
5.360000000000000000e+02 2.435935644106215747e+01
5.370000000000000000e+02 2.251810799107089167e+01
5.380000000000000000e+02 2.046226573355495049e+01
5.390000000000000000e+02 1.827013100268126067e+01
5.400000000000000000e+02 1.604022350150525611e+01
5.410000000000000000e+02 1.389045274105492567e+01
5.420000000000000000e+02 1.194960903890065218e+01
5.430000000000000000e+02 1.034489358420244898e+01
5.440000000000000000e+02 9.187070242547138221e+00
5.450000000000000000e+02 8.555346668039559788e+00
5.460000000000000000e+02 8.488059521875673141e+00
5.470000000000000000e+02 8.980917992639863456e+00
5.480000000000000000e+02 9.989266503051517532e+00
5.490000000000000000e+02 1.143556785817691512e+01
5.500000000000000000e+02 1.321791621874665346e+01
5.510000000000000000e+02 1.521994688612780777e+01
5.520000000000000000e+02 1.732558837122153861e+01
5.530000000000000000e+02 1.942973613354919138e+01
5.540000000000000000e+02 2.144469838331962563e+01
5.550000000000000000e+02 2.330574745322730834e+01
5.560000000000000000e+02 2.496882426144955858e+01
5.570000000000000000e+02 2.640317603622474962e+01
5.580000000000000000e+02 2.758760644551972874e+01
5.590000000000000000e+02 2.850737317821016603e+01
5.600000000000000000e+02 2.915100171723740630e+01
5.610000000000000000e+02 2.951089834722332839e+01
5.620000000000000000e+02 2.958469922197378210e+01
5.630000000000000000e+02 2.937486890115206251e+01
5.640000000000000000e+02 2.888862449874372018e+01
5.650000000000000000e+02 2.813755198321876705e+01
5.660000000000000000e+02 2.713651658857937221e+01
5.670000000000000000e+02 2.590428898275792946e+01
5.680000000000000000e+02 2.446483966412206712e+01
5.690000000000000000e+02 2.284883937085181671e+01
5.700000000000000000e+02 2.109603675985589177e+01
5.710000000000000000e+02 1.925762692830377887e+01
5.720000000000000000e+02 1.739562821050427033e+01
5.730000000000000000e+02 1.558144600024852444e+01
5.740000000000000000e+02 1.389283087271404682e+01
5.750000000000000000e+02 1.240888805809620621e+01
5.760000000000000000e+02 1.120333299845999164e+01
5.770000000000000000e+02 1.033798875724266253e+01
5.780000000000000000e+02 9.856643906621952667e+00
5.790000000000000000e+02 9.780480681611010141e+00
5.800000000000000000e+02 1.010616652198139676e+01
5.810000000000000000e+02 1.080733255408833671e+01
5.820000000000000000e+02 1.183861231319150775e+01
5.830000000000000000e+02 1.314090929001607044e+01
5.840000000000000000e+02 1.464739849516966608e+01
5.850000000000000000e+02 1.628923443574005958e+01
5.860000000000000000e+02 1.800003943919676175e+01
5.870000000000000000e+02 1.971904455625876906e+01
5.880000000000000000e+02 2.139360126047882815e+01
5.890000000000000000e+02 2.298009497785591648e+01
5.900000000000000000e+02 2.444381346957141687e+01
5.910000000000000000e+02 2.575816859659888536e+01
5.920000000000000000e+02 2.690348052610501739e+01
5.930000000000000000e+02 2.786576647209025737e+01
5.940000000000000000e+02 2.863567354191674497e+01
5.950000000000000000e+02 2.920748996576558909e+01
5.960000000000000000e+02 2.957834228449976521e+01
5.970000000000000000e+02 2.974762892054261343e+01
5.980000000000000000e+02 2.971674388227729224e+01
5.990000000000000000e+02 2.948872447045102163e+01
6.000000000000000000e+02 2.906815357900776675e+01
6.010000000000000000e+02 2.846129048254054084e+01
6.020000000000000000e+02 2.767635100910856849e+01
6.030000000000000000e+02 2.672383156365888368e+01
6.040000000000000000e+02 2.561686114774277456e+01
6.050000000000000000e+02 2.437201041277345226e+01
6.060000000000000000e+02 2.300996505902082490e+01
6.070000000000000000e+02 2.155608253830770948e+01
6.080000000000000000e+02 2.004077386783414028e+01
6.090000000000000000e+02 1.849963153392805992e+01
6.100000000000000000e+02 1.697303059230138089e+01
6.110000000000000000e+02 1.550498537401049326e+01
6.120000000000000000e+02 1.414156485690737419e+01
6.130000000000000000e+02 1.292874446586363923e+01
6.140000000000000000e+02 1.190979441302455122e+01
6.150000000000000000e+02 1.112254319471858111e+01
6.160000000000000000e+02 1.059673201248441465e+01
6.170000000000000000e+02 1.035143234715182814e+01
6.180000000000000000e+02 1.039344114306064526e+01
6.190000000000000000e+02 1.071679618954943436e+01
6.200000000000000000e+02 1.130345784080038030e+01
6.210000000000000000e+02 1.212506622991672067e+01
6.220000000000000000e+02 1.314566866644521248e+01
6.230000000000000000e+02 1.432472643254579836e+01
6.240000000000000000e+02 1.561986520293358360e+01
6.250000000000000000e+02 1.698926063347177617e+01
6.260000000000000000e+02 1.839350282213978005e+01
6.270000000000000000e+02 1.979681559188847828e+01
6.280000000000000000e+02 2.116734672426685293e+01
6.290000000000000000e+02 2.247766505293279238e+01
6.300000000000000000e+02 2.370498535041373600e+01
6.310000000000000000e+02 2.483094156941054109e+01
6.320000000000000000e+02 2.584118370040571122e+01
6.330000000000000000e+02 2.672489056695679466e+01
6.340000000000000000e+02 2.747445415108893485e+01
6.350000000000000000e+02 2.808497362044267831e+01
6.360000000000000000e+02 2.855347916234118344e+01
6.370000000000000000e+02 2.887850845964009494e+01
6.380000000000000000e+02 2.905979123238356010e+01
6.390000000000000000e+02 2.909802058373709954e+01
6.400000000000000000e+02 2.899469819461553044e+01
6.410000000000000000e+02 2.875205054271684446e+01
6.420000000000000000e+02 2.837311493885788494e+01
6.430000000000000000e+02 2.786183735651529503e+01
6.440000000000000000e+02 2.722320314697866905e+01
6.450000000000000000e+02 2.646341779142591477e+01
6.460000000000000000e+02 2.559012838934809508e+01
6.470000000000000000e+02 2.461268136239374726e+01
6.480000000000000000e+02 2.354239352535416430e+01
6.490000000000000000e+02 2.239278431557703186e+01
6.500000000000000000e+02 2.117977936048028909e+01
6.510000000000000000e+02 1.992184170945237653e+01
6.520000000000000000e+02 1.863998924212638286e+01
6.530000000000000000e+02 1.735765591494672933e+01
6.540000000000000000e+02 1.610031448765074202e+01
6.550000000000000000e+02 1.489495895844627427e+01
6.560000000000000000e+02 1.376943493438347055e+01
6.570000000000000000e+02 1.275145081184076723e+01
6.580000000000000000e+02 1.186741234606714102e+01
6.590000000000000000e+02 1.114115158742702683e+01
6.600000000000000000e+02 1.059265208714844597e+01
6.610000000000000000e+02 1.023686352513100140e+01
6.620000000000000000e+02 1.008273050965705409e+01
6.630000000000000000e+02 1.013264286063670028e+01
6.640000000000000000e+02 1.038233328212065132e+01
6.650000000000000000e+02 1.082121991760473456e+01
6.660000000000000000e+02 1.143314996119365290e+01
6.670000000000000000e+02 1.219745427823246686e+01
6.680000000000000000e+02 1.309022069189919257e+01
6.690000000000000000e+02 1.408561705607537817e+01
6.700000000000000000e+02 1.515709924970632905e+01
6.710000000000000000e+02 1.627849279359735846e+01
6.720000000000000000e+02 1.742487251208166299e+01
6.730000000000000000e+02 1.857321333957123954e+01
6.740000000000000000e+02 1.970281490986916850e+01
6.750000000000000000e+02 2.079550444044253510e+01
6.760000000000000000e+02 2.183566814056106509e+01
6.770000000000000000e+02 2.281021659490950881e+01
6.780000000000000000e+02 2.370843013521974285e+01
6.790000000000000000e+02 2.452174087955819104e+01
6.800000000000000000e+02 2.524348582196786950e+01
6.810000000000000000e+02 2.586865346143497746e+01
6.820000000000000000e+02 2.639363968174895803e+01
6.830000000000000000e+02 2.681601393194210559e+01
6.840000000000000000e+02 2.713431052177926617e+01
6.850000000000000000e+02 2.734786622171590054e+01
6.860000000000000000e+02 2.745669335957967405e+01
6.870000000000000000e+02 2.746138607236077789e+01
6.880000000000000000e+02 2.736305853761423634e+01
6.890000000000000000e+02 2.716331360705189724e+01
6.900000000000000000e+02 2.686425993551904767e+01
6.910000000000000000e+02 2.646855804283939761e+01
6.920000000000000000e+02 2.597942254053646849e+01
6.930000000000000000e+02 2.540067831942561938e+01
6.940000000000000000e+02 2.473684072013404034e+01
6.950000000000000000e+02 2.399320959474680137e+01
6.960000000000000000e+02 2.317597244118375599e+01
6.970000000000000000e+02 2.229230991847526866e+01
6.980000000000000000e+02 2.135048839061491677e+01
6.990000000000000000e+02 2.035997438340709564e+01
7.000000000000000000e+02 1.933152754106413695e+01
7.010000000000000000e+02 1.827723127556436822e+01
7.020000000000000000e+02 1.721047070982907812e+01
7.030000000000000000e+02 1.614584524380456898e+01
7.040000000000000000e+02 1.509900358056427372e+01
7.050000000000000000e+02 1.408639162154890556e+01
7.060000000000000000e+02 1.312488455019111200e+01
7.070000000000000000e+02 1.223130474400436540e+01
7.080000000000000000e+02 1.142191860804027037e+01
7.090000000000000000e+02 1.071190189205008991e+01
7.100000000000000000e+02 1.011479267206711086e+01
7.110000000000000000e+02 9.641968270530398399e+00
7.120000000000000000e+02 9.302184703573452396e+00
7.130000000000000000e+02 9.101217794235354930e+00
7.140000000000000000e+02 9.041728751757721838e+00
7.150000000000000000e+02 9.123228825713999512e+00
7.160000000000000000e+02 9.342009266652167909e+00
7.170000000000000000e+02 9.691299786308366748e+00
7.180000000000000000e+02 1.016156987479332408e+01
7.190000000000000000e+02 1.074094079522220291e+01
7.200000000000000000e+02 1.141567555891280428e+01
7.210000000000000000e+02 1.217071007821884798e+01
7.220000000000000000e+02 1.299013808363658562e+01
7.230000000000000000e+02 1.385770427474592381e+01
7.240000000000000000e+02 1.475743078782678097e+01
7.250000000000000000e+02 1.567403904516075919e+01
7.260000000000000000e+02 1.659325990346167856e+01
7.270000000000000000e+02 1.750205186147840308e+01
7.280000000000000000e+02 1.838873400152888493e+01
7.290000000000000000e+02 1.924304464367288148e+01
7.300000000000000000e+02 2.005613689924424037e+01
7.310000000000000000e+02 2.082048807096489895e+01
7.320000000000000000e+02 2.152976327215795749e+01
7.330000000000000000e+02 2.217871462369045332e+01
7.340000000000000000e+02 2.276307826511633792e+01
7.350000000000000000e+02 2.327946876796120179e+01
7.360000000000000000e+02 2.372527619386450937e+01
7.370000000000000000e+02 2.409856963041177025e+01
7.380000000000000000e+02 2.439800987804201071e+01
7.390000000000000000e+02 2.462280145281300747e+01
7.400000000000000000e+02 2.477272979393044139e+01
7.410000000000000000e+02 2.484804704911449846e+01
7.420000000000000000e+02 2.484939619696332969e+01
7.430000000000000000e+02 2.477777081979971996e+01
7.440000000000000000e+02 2.463448627607488106e+01
7.450000000000000000e+02 2.442116152162335396e+01
7.460000000000000000e+02 2.413971068131627717e+01
7.470000000000000000e+02 2.379234333874700624e+01
7.480000000000000000e+02 2.338154090078884551e+01
7.490000000000000000e+02 2.291000279059772282e+01
7.500000000000000000e+02 2.238073858470510658e+01
7.510000000000000000e+02 2.179711703402893619e+01
7.520000000000000000e+02 2.116290211658650477e+01
7.530000000000000000e+02 2.048229051794951516e+01
7.540000000000000000e+02 1.975994853350047720e+01
7.550000000000000000e+02 1.900104607427445913e+01
7.560000000000000000e+02 1.821128513107769109e+01
7.570000000000000000e+02 1.739693707765248121e+01
7.580000000000000000e+02 1.656490306706110616e+01
7.590000000000000000e+02 1.572265090628348716e+01
7.600000000000000000e+02 1.487816237933986585e+01
7.610000000000000000e+02 1.403987487803298784e+01
7.620000000000000000e+02 1.321659820569074029e+01
7.630000000000000000e+02 1.241740522297145510e+01
7.640000000000000000e+02 1.165149628972264928e+01
7.650000000000000000e+02 1.092803904267725734e+01
7.660000000000000000e+02 1.025598381303406192e+01
7.670000000000000000e+02 9.643845992077187290e+00
7.680000000000000000e+02 9.099539653001336603e+00
7.690000000000000000e+02 8.630200647598826436e+00
7.700000000000000000e+02 8.241991619195514929e+00
7.710000000000000000e+02 7.939922910185148730e+00
7.720000000000000000e+02 7.727699412484234642e+00
7.730000000000000000e+02 7.607602297038456030e+00
7.740000000000000000e+02 7.580412941026927420e+00
7.750000000000000000e+02 7.645384052093587179e+00
7.760000000000000000e+02 7.800240118058747285e+00
7.770000000000000000e+02 8.041198241378957334e+00
7.780000000000000000e+02 8.363126318620734523e+00
7.790000000000000000e+02 8.759720681143223331e+00
7.800000000000000000e+02 9.223704126714682872e+00
7.810000000000000000e+02 9.747042591341010365e+00
7.820000000000000000e+02 1.032116935278482828e+01
7.830000000000000000e+02 1.093720629542713851e+01
7.840000000000000000e+02 1.158617310184138915e+01
7.850000000000000000e+02 1.225917740111332677e+01
7.860000000000000000e+02 1.294760348255412552e+01
7.870000000000000000e+02 1.364324916604534543e+01
7.880000000000000000e+02 1.433837775296057337e+01
7.890000000000000000e+02 1.502578936468522919e+01
7.900000000000000000e+02 1.569887296019358836e+01
7.910000000000000000e+02 1.635163655257411719e+01
7.920000000000000000e+02 1.697871848361091907e+01
7.930000000000000000e+02 1.757538287822822909e+01
7.940000000000000000e+02 1.813750244179485094e+01
7.950000000000000000e+02 1.866153167589426687e+01
7.960000000000000000e+02 1.914448424226903711e+01
7.970000000000000000e+02 1.958392201378513064e+01
7.980000000000000000e+02 1.997790718075443550e+01
7.990000000000000000e+02 2.032495529003434243e+01
8.000000000000000000e+02 2.062399078679397846e+01
8.010000000000000000e+02 2.087430437074086953e+01
8.020000000000000000e+02 2.107551307273758923e+01
8.030000000000000000e+02 2.122752367286679132e+01
8.040000000000000000e+02 2.133049984475978533e+01
8.050000000000000000e+02 2.138483322058981173e+01
8.060000000000000000e+02 2.139110700285741729e+01
8.070000000000000000e+02 2.135002552473291004e+01
8.080000000000000000e+02 2.126244158232769621e+01
8.090000000000000000e+02 2.112936739510436368e+01
8.100000000000000000e+02 2.095196776539033934e+01
8.110000000000000000e+02 2.073155601753509103e+01
8.120000000000000000e+02 2.046959244397703515e+01
8.130000000000000000e+02 2.016768494359511621e+01
8.140000000000000000e+02 1.982759151181362967e+01
8.150000000000000000e+02 1.945122421469692853e+01
8.160000000000000000e+02 1.904065429951063493e+01
8.170000000000000000e+02 1.859811971857853763e+01
8.180000000000000000e+02 1.812602156444592794e+01
8.190000000000000000e+02 1.762691648969505920e+01
8.200000000000000000e+02 1.710352104494965175e+01
8.210000000000000000e+02 1.655871612777093915e+01
8.220000000000000000e+02 1.599555007863762768e+01
8.230000000000000000e+02 1.541723988474107365e+01
8.240000000000000000e+02 1.482716994062708871e+01
8.250000000000000000e+02 1.422888781340158637e+01
8.260000000000000000e+02 1.362609647313746919e+01
8.270000000000000000e+02 1.302264277534935211e+01
8.280000000000000000e+02 1.242251276132275173e+01
8.290000000000000000e+02 1.182981563198203823e+01
8.300000000000000000e+02 1.124874280156289785e+01
8.310000000000000000e+02 1.068353285093555449e+01
8.320000000000000000e+02 1.013843198585603211e+01
8.330000000000000000e+02 9.617649357637969132e+00
8.340000000000000000e+02 9.125307798255425595e+00
8.350000000000000000e+02 8.665390775786645960e+00
8.360000000000000000e+02 8.241686630549954984e+00
8.370000000000000000e+02 7.857731392177494278e+00
8.380000000000000000e+02 7.516751686448467140e+00
8.390000000000000000e+02 7.221609400686960001e+00
8.400000000000000000e+02 6.974749871547070157e+00
8.410000000000000000e+02 6.778155375363224877e+00
8.420000000000000000e+02 6.633305629473129628e+00
8.430000000000000000e+02 6.541146849241872729e+00
8.440000000000000000e+02 6.502070652920036054e+00
8.450000000000000000e+02 6.515903774923740066e+00
8.460000000000000000e+02 6.581909154424320008e+00
8.470000000000000000e+02 6.698798532624746116e+00
8.480000000000000000e+02 6.864756243145440529e+00
8.490000000000000000e+02 7.077473409472132104e+00
8.500000000000000000e+02 7.334191504577683318e+00
8.510000000000000000e+02 7.631753803091401167e+00
8.520000000000000000e+02 7.966662913164221038e+00
8.530000000000000000e+02 8.335142568892081272e+00
8.540000000000000000e+02 8.733201766367029606e+00
8.550000000000000000e+02 9.156699429308400084e+00
8.560000000000000000e+02 9.601408641802839483e+00
8.570000000000000000e+02 1.006307702562305373e+01
8.580000000000000000e+02 1.053748227763724543e+01
8.590000000000000000e+02 1.102048305191837052e+01
8.600000000000000000e+02 1.150806389353634174e+01
8.610000000000000000e+02 1.199637374597564765e+01
8.620000000000000000e+02 1.248175783506851744e+01
8.630000000000000000e+02 1.296078296904086002e+01
8.640000000000000000e+02 1.343025649456669690e+01
8.650000000000000000e+02 1.388723930889374181e+01
8.660000000000000000e+02 1.432905344742612996e+01
8.670000000000000000e+02 1.475328484634375670e+01
8.680000000000000000e+02 1.515778192453421447e+01
8.690000000000000000e+02 1.554065064305801869e+01
8.700000000000000000e+02 1.590024668899325810e+01
8.710000000000000000e+02 1.623516539934307801e+01
8.720000000000000000e+02 1.654422999509681702e+01
8.730000000000000000e+02 1.682647864031452301e+01
8.740000000000000000e+02 1.708115078048205504e+01
8.750000000000000000e+02 1.730767315178768939e+01
8.760000000000000000e+02 1.750564579117775921e+01
8.770000000000000000e+02 1.767482831805656929e+01
8.780000000000000000e+02 1.781512670376238461e+01
8.790000000000000000e+02 1.792658069534139997e+01
8.800000000000000000e+02 1.800935201612898595e+01
8.810000000000000000e+02 1.806371342732087015e+01
8.820000000000000000e+02 1.809003870194163710e+01
8.830000000000000000e+02 1.808879353508119436e+01
8.840000000000000000e+02 1.806052739145907893e+01
8.850000000000000000e+02 1.800586627286786978e+01
8.860000000000000000e+02 1.792550637319675388e+01
8.870000000000000000e+02 1.782020857707395223e+01
8.880000000000000000e+02 1.769079374914828762e+01
8.890000000000000000e+02 1.753813875414464007e+01
8.900000000000000000e+02 1.736317314269591350e+01
8.910000000000000000e+02 1.716687643415411202e+01
8.920000000000000000e+02 1.695027592483326373e+01
8.930000000000000000e+02 1.671444494806345560e+01
8.940000000000000000e+02 1.646050151101289316e+01
8.950000000000000000e+02 1.618960723206160424e+01
8.960000000000000000e+02 1.590296650168592230e+01
8.970000000000000000e+02 1.560182578909411966e+01
8.980000000000000000e+02 1.528747301634507672e+01
8.990000000000000000e+02 1.496123692131213012e+01
9.000000000000000000e+02 1.462448633068136417e+01
9.010000000000000000e+02 1.427862926434651314e+01
9.020000000000000000e+02 1.392511179308926117e+01
9.030000000000000000e+02 1.356541657257942468e+01
9.040000000000000000e+02 1.320106097854020177e+01
9.050000000000000000e+02 1.283359477069159205e+01
9.060000000000000000e+02 1.246459721690836631e+01
9.070000000000000000e+02 1.209567361422955578e+01
9.080000000000000000e+02 1.172845114996414750e+01
9.090000000000000000e+02 1.136457405453160696e+01
9.100000000000000000e+02 1.100569800780508167e+01
9.110000000000000000e+02 1.065348377287514658e+01
9.120000000000000000e+02 1.030959004525694134e+01
9.130000000000000000e+02 9.975665521656337020e+00
9.140000000000000000e+02 9.653340210387412412e+00
9.150000000000000000e+02 9.344216025188014640e+00
9.160000000000000000e+02 9.049856725213858866e+00
9.170000000000000000e+02 8.771777285950161485e+00
9.180000000000000000e+02 8.511432808227906932e+00
9.190000000000000000e+02 8.270207094661577329e+00
9.200000000000000000e+02 8.049401044105271907e+00
9.210000000000000000e+02 7.850221034145192789e+00
9.220000000000000000e+02 7.673767478506364093e+00
9.230000000000000000e+02 7.521023759594760882e+00
9.240000000000000000e+02 7.392845745385439926e+00
9.250000000000000000e+02 7.289952103859334898e+00
9.260000000000000000e+02 7.212915626379408529e+00
9.270000000000000000e+02 7.162155763540386744e+00
9.280000000000000000e+02 7.137932562720738616e+00
9.290000000000000000e+02 7.140342175984380368e+00
9.300000000000000000e+02 7.169314080331440131e+00
9.310000000000000000e+02 7.224610120227708876e+00
9.320000000000000000e+02 7.305825445707333721e+00
9.330000000000000000e+02 7.412391379224532173e+00
9.340000000000000000e+02 7.543580202189606787e+00
9.350000000000000000e+02 7.698511809165534459e+00
9.360000000000000000e+02 7.876162135573028245e+00
9.370000000000000000e+02 8.075373224961762020e+00
9.380000000000000000e+02 8.294864765883522395e+00
9.390000000000000000e+02 8.533246897396990605e+00
9.400000000000000000e+02 8.789034057316632342e+00
9.410000000000000000e+02 9.060659629214621091e+00
9.420000000000000000e+02 9.346491133378552973e+00
9.430000000000000000e+02 9.644845703527590075e+00
9.440000000000000000e+02 9.954005594924831613e+00
9.450000000000000000e+02 1.027223348010451964e+01
9.460000000000000000e+02 1.059778730504199373e+01
9.470000000000000000e+02 1.092893450027885649e+01
9.480000000000000000e+02 1.126396536725885333e+01
9.490000000000000000e+02 1.160120548871419466e+01
9.500000000000000000e+02 1.193902704227695821e+01
9.510000000000000000e+02 1.227585892741673312e+01
9.520000000000000000e+02 1.261019564628941581e+01
9.530000000000000000e+02 1.294060490825869358e+01
9.540000000000000000e+02 1.326573395490005325e+01
9.550000000000000000e+02 1.358431462668723277e+01
9.560000000000000000e+02 1.389516721385245468e+01
9.570000000000000000e+02 1.419720315182827797e+01
9.580000000000000000e+02 1.448942663615865811e+01
9.590000000000000000e+02 1.477093524282269676e+01
9.600000000000000000e+02 1.504091964767384226e+01
9.610000000000000000e+02 1.529866254344238463e+01
9.620000000000000000e+02 1.554353685471891211e+01
9.630000000000000000e+02 1.577500335092850214e+01
9.640000000000000000e+02 1.599260775484133745e+01
9.650000000000000000e+02 1.619597744005184481e+01
9.660000000000000000e+02 1.638481780540616484e+01
9.670000000000000000e+02 1.655890840795973418e+01
9.680000000000000000e+02 1.671809892897508831e+01
9.690000000000000000e+02 1.686230504000511132e+01
9.700000000000000000e+02 1.699150422849346853e+01
9.710000000000000000e+02 1.710573163475068625e+01
9.720000000000000000e+02 1.720507594481827596e+01
9.730000000000000000e+02 1.728967537667050891e+01
9.740000000000000000e+02 1.735971379064218567e+01
9.750000000000000000e+02 1.741541694881030367e+01
9.760000000000000000e+02 1.745704894250338413e+01
9.770000000000000000e+02 1.748490880207587850e+01
9.780000000000000000e+02 1.749932729857943770e+01
9.790000000000000000e+02 1.750066394303581063e+01
9.800000000000000000e+02 1.748930418558771294e+01
9.810000000000000000e+02 1.746565681384987911e+01
9.820000000000000000e+02 1.743015154729103600e+01
9.830000000000000000e+02 1.738323682241757595e+01
9.840000000000000000e+02 1.732537776178467581e+01
9.850000000000000000e+02 1.725705431852737703e+01
9.860000000000000000e+02 1.717875958697370109e+01
9.870000000000000000e+02 1.709099826911756637e+01
9.880000000000000000e+02 1.699428528608254396e+01
9.890000000000000000e+02 1.688914452331216154e+01
9.900000000000000000e+02 1.677610769794235424e+01
9.910000000000000000e+02 1.665571333670088805e+01
9.920000000000000000e+02 1.652850585261251126e+01
9.930000000000000000e+02 1.639503470893370363e+01
9.940000000000000000e+02 1.625585365880288791e+01
9.950000000000000000e+02 1.611152004932299064e+01
9.960000000000000000e+02 1.596259417905860900e+01
9.970000000000000000e+02 1.580963869819215262e+01
9.980000000000000000e+02 1.565321804088234892e+01
9.990000000000000000e+02 1.549389787974640420e+01
1.000000000000000000e+03 1.533224459274231144e+01
1.001000000000000000e+03 1.516882473308879220e+01
1.002000000000000000e+03 1.500420449331586426e+01
1.003000000000000000e+03 1.483894915495648981e+01
1.004000000000000000e+03 1.467362251582293808e+01
1.005000000000000000e+03 1.450878628739872767e+01
1.006000000000000000e+03 1.434499945528089349e+01
1.007000000000000000e+03 1.418281759632016303e+01
1.008000000000000000e+03 1.402279214660237017e+01
1.009000000000000000e+03 1.386546961518253163e+01
1.010000000000000000e+03 1.371139073913716366e+01
1.011000000000000000e+03 1.356108957633374068e+01
1.012000000000000000e+03 1.341509253316485761e+01
1.013000000000000000e+03 1.327391732536692714e+01
1.014000000000000000e+03 1.313807187110783481e+01
1.015000000000000000e+03 1.300805311651594742e+01
1.016000000000000000e+03 1.288434579498144394e+01
1.017000000000000000e+03 1.276742112276166807e+01
1.018000000000000000e+03 1.265773543462770334e+01
1.019000000000000000e+03 1.255572876463215160e+01
1.020000000000000000e+03 1.246182337837700871e+01
1.021000000000000000e+03 1.237642226454677186e+01
1.022000000000000000e+03 1.229990759483079721e+01
1.023000000000000000e+03 1.223263916270398433e+01
1.024000000000000000e+03 1.217495281289640907e+01
1.025000000000000000e+03 1.212715887460170094e+01
1.026000000000000000e+03 1.208954061269718139e+01
1.027000000000000000e+03 1.206235271230199579e+01
1.028000000000000000e+03 1.204581981293412518e+01
1.029000000000000000e+03 1.204013510928298381e+01
1.030000000000000000e+03 1.204545903617082381e+01
1.031000000000000000e+03 1.206191805561825880e+01
1.032000000000000000e+03 1.208960356398468505e+01
1.033000000000000000e+03 1.212857093697536115e+01
1.034000000000000000e+03 1.217883872977735393e+01
1.035000000000000000e+03 1.224038804881817377e+01
1.036000000000000000e+03 1.231316211048797449e+01
1.037000000000000000e+03 1.239706600072435272e+01
1.038000000000000000e+03 1.249196664764158449e+01
1.039000000000000000e+03 1.259769301729818736e+01
1.040000000000000000e+03 1.271403654040038589e+01
1.041000000000000000e+03 1.284075177519289390e+01
1.042000000000000000e+03 1.297755730899054250e+01
1.043000000000000000e+03 1.312413689793264204e+01
1.044000000000000000e+03 1.328014084148585994e+01
1.045000000000000000e+03 1.344518758516522539e+01
1.046000000000000000e+03 1.361886554190445686e+01
1.047000000000000000e+03 1.380073511949428600e+01
1.048000000000000000e+03 1.399033093869976518e+01
1.049000000000000000e+03 1.418716422400187760e+01
1.050000000000000000e+03 1.439072534653701929e+01
1.051000000000000000e+03 1.460048649671496257e+01
1.052000000000000000e+03 1.481590446227935054e+01
1.053000000000000000e+03 1.503642348622816272e+01
1.054000000000000000e+03 1.526147817809087037e+01
1.055000000000000000e+03 1.549049645156163102e+01
1.056000000000000000e+03 1.572290246143611725e+01
1.057000000000000000e+03 1.595811951317150346e+01
1.058000000000000000e+03 1.619557291919568343e+01
1.059000000000000000e+03 1.643469277725435163e+01
1.060000000000000000e+03 1.667491664765888970e+01
1.061000000000000000e+03 1.691569210814072832e+01
1.062000000000000000e+03 1.715647916715185417e+01
1.063000000000000000e+03 1.739675251881499918e+01
1.064000000000000000e+03 1.763600362522569753e+01
1.065000000000000000e+03 1.787374261443871859e+01
1.066000000000000000e+03 1.810949998514858450e+01
1.067000000000000000e+03 1.834282811173887495e+01
1.068000000000000000e+03 1.857330254600663366e+01
1.069000000000000000e+03 1.880052311439835577e+01
1.070000000000000000e+03 1.902411481196837428e+01
1.071000000000000000e+03 1.924372849652029771e+01
1.072000000000000000e+03 1.945904138838054109e+01
1.073000000000000000e+03 1.966975738309427157e+01
1.074000000000000000e+03 1.987560718586646757e+01
1.075000000000000000e+03 2.007634825097097675e+01
1.076000000000000000e+03 2.027176447311984475e+01
1.077000000000000000e+03 2.046166597198806159e+01
1.078000000000000000e+03 2.064588868615008366e+01
1.079000000000000000e+03 2.082429378966933697e+01
1.080000000000000000e+03 2.099676700219736958e+01
1.081000000000000000e+03 2.116321780592511104e+01
1.082000000000000000e+03 2.132357858249575600e+01
1.083000000000000000e+03 2.147780368266446871e+01
1.084000000000000000e+03 2.162586844101779349e+01
1.085000000000000000e+03 2.176776814751607958e+01
1.086000000000000000e+03 2.190351698695803861e+01
1.087000000000000000e+03 2.203314695673886803e+01
1.088000000000000000e+03 2.215670677250107801e+01
1.089000000000000000e+03 2.227426077048476216e+01
1.090000000000000000e+03 2.238588781452547494e+01
1.091000000000000000e+03 2.249168021486532965e+01
1.092000000000000000e+03 2.259174266508307127e+01
1.093000000000000000e+03 2.268619120267744194e+01
1.094000000000000000e+03 2.277515219805691871e+01
1.095000000000000000e+03 2.285876137594796731e+01
1.096000000000000000e+03 2.293716287255499964e+01
1.097000000000000000e+03 2.301050833113317395e+01
1.098000000000000000e+03 2.307895603804173845e+01
1.099000000000000000e+03 2.314267010080990872e+01
1.100000000000000000e+03 2.320181966918748628e+01
