1100.000000	4.060000 
1098.000000	3.903000 
1096.000000	3.773000 
1094.000000	3.649000 
1092.000000	3.509000 
1090.000000	3.313000 
1088.000000	3.213000 
1086.000000	3.093000 
1084.000000	3.083000 
1082.000000	3.030000 
1080.000000	2.981000 
1078.000000	2.942000 
1076.000000	2.862000 
1074.000000	2.854000 
1072.000000	2.871000 
1070.000000	2.933000 
1068.000000	3.008000 
1066.000000	2.959000 
1064.000000	3.035000 
1062.000000	3.062000 
1060.000000	3.044000 
1058.000000	3.152000 
1056.000000	3.195000 
1054.000000	3.256000 
1052.000000	3.403000 
1050.000000	3.468000 
1048.000000	3.523000 
1046.000000	3.636000 
1044.000000	3.707000 
1042.000000	3.830000 
1040.000000	3.901000 
1038.000000	3.984999 
1036.000000	4.089000 
1034.000000	4.124000 
1032.000000	4.150000 
1030.000000	4.199000 
1028.000000	4.217000 
1026.000000	4.226000 
1024.000000	4.239000 
1022.000000	4.208000 
1020.000000	4.198000 
1018.000000	4.132000 
1016.000000	4.066000 
1014.000000	3.991000 
1012.000000	3.917000 
1010.000000	3.818000 
1008.000000	3.718000 
1006.000000	3.600000 
1004.000000	3.468000 
1002.000000	3.340000 
1000.000000	3.182000 
998.000000	 3.046000 
996.000000	 2.906000 
994.000000	 2.750000 
992.000000	 2.602000 
990.000000	 2.454000 
988.000000	 2.323000 
986.000000	 2.174000 
984.000000	 2.040000 
982.000000	 1.908000 
980.000000	 1.793000 
978.000000	 1.702000 
976.000000	 1.603000 
974.000000	 1.540000 
972.000000	 1.469000 
970.000000	 1.418000 
968.000000	 1.396000 
966.000000	 1.375000 
964.000000	 1.399000 
962.000000	 1.408000 
960.000000	 1.458000 
958.000000	 1.517000 
956.000000	 1.574000 
954.000000	 1.674000 
952.000000	 1.780000 
950.000000	 1.909000 
948.000000	 2.030000 
946.000000	 2.178000 
944.000000	 2.326000 
942.000000	 2.498000 
940.000000	 2.662000 
938.000000	 2.818000 
936.000000	 2.959000 
934.000000	 3.103000 
932.000000	 3.249000 
930.000000	 3.383000 
928.000000	 3.502000 
926.000000	 3.629000 
924.000000	 3.747000 
922.000000	 3.855000 
920.000000	 3.968000 
918.000000	 4.069000 
916.000000	 4.156000 
914.000000	 4.225000 
912.000000	 4.273000 
910.000000	 4.232000 
908.000000	 4.181000 
906.000000	 4.066000 
904.000000	 3.918000 
902.000000	 3.736000 
900.000000	 3.557000 
898.000000	 3.347000 
896.000000	 3.140000 
894.000000	 2.937000 
892.000000	 2.754000 
890.000000	 2.536000 
888.000000	 2.361000 
886.000000	 2.173000 
884.000000	 1.992000 
882.000000	 1.829000 
880.000000	 1.694000 
878.000000	 1.579000 
876.000000	 1.521000 
874.000000	 1.461000 
872.000000	 1.423000 
870.000000	 1.424000 
868.000000	 1.441000 
866.000000	 1.516000 
864.000000	 1.595000 
862.000000	 1.704000 
860.000000	 1.843000 
858.000000	 2.018000 
856.000000	 2.177000 
854.000000	 2.380000 
852.000000	 2.589000 
850.000000	 2.803000 
848.000000	 3.011000 
846.000000	 3.211000 
844.000000	 3.388000 
842.000000	 3.564000 
840.000000	 3.701000 
838.000000	 3.814000 
836.000000	 3.881000 
834.000000	 3.931000 
832.000000	 3.953000 
830.000000	 3.939000 
828.000000	 3.895000 
826.000000	 3.812000 
824.000000	 3.685000 
822.000000	 3.559000 
820.000000	 3.395000 
818.000000	 3.203000 
816.000000	 3.008000 
814.000000	 2.806000 
812.000000	 2.615000 
810.000000	 2.414000 
808.000000	 2.203000 
806.000000	 2.011000 
804.000000	 1.820000 
802.000000	 1.671000 
800.000000	 1.529000 
798.000000	 1.440000 
796.000000	 1.362000 
794.000000	 1.333000 
792.000000	 1.348000 
790.000000	 1.415000 
788.000000	 1.507000 
786.000000	 1.644000 
784.000000	 1.821000 
782.000000	 2.010000 
780.000000	 2.228000 
778.000000	 2.457000 
776.000000	 2.693000 
774.000000	 2.888000 
772.000000	 3.091000 
770.000000	 3.256000 
768.000000	 3.390000 
766.000000	 3.469000 
764.000000	 3.538000 
762.000000	 3.529000 
760.000000	 3.479000 
758.000000	 3.392000 
756.000000	 3.258000 
754.000000	 3.089000 
752.000000	 2.887000 
750.000000	 2.665000 
748.000000	 2.445000 
746.000000	 2.203000 
744.000000	 1.970000 
742.000000	 1.743000 
740.000000	 1.538000 
738.000000	 1.366000 
736.000000	 1.232000 
734.000000	 1.140000 
732.000000	 1.112000 
730.000000	 1.119000 
728.000000	 1.195000 
726.000000	 1.323000 
724.000000	 1.500000 
722.000000	 1.725000 
720.000000	 1.959000 
718.000000	 2.213000 
716.000000	 2.465000 
714.000000	 2.685000 
712.000000	 2.864000 
710.000000	 3.010000 
708.000000	 3.093000 
706.000000	 3.124000 
704.000000	 3.077000 
702.000000	 2.979000 
700.000000	 2.827000 
698.000000	 2.635000 
696.000000	 2.389000 
694.000000	 2.133000 
692.000000	 1.870000 
690.000000	 1.614000 
688.000000	 1.382000 
686.000000	 1.185000 
684.000000	 1.054000 
682.000000	 0.961000 
680.000000	 0.945000 
678.000000	 1.002000 
676.000000	 1.145000 
674.000000	 1.351000 
672.000000	 1.608000 
670.000000	 1.893000 
668.000000	 2.184000 
666.000000	 2.452000 
664.000000	 2.694000 
662.000000	 2.868000 
660.000000	 2.960000 
658.000000	 2.980000 
656.000000	 2.903000 
654.000000	 2.759000 
652.000000	 2.555000 
650.000000	 2.277000 
648.000000	 1.985000 
646.000000	 1.692000 
644.000000	 1.416000 
642.000000	 1.186000 
640.000000	 1.035000 
638.000000	 0.970000 
636.000000	 1.011000 
634.000000	 1.170000 
632.000000	 1.404000 
630.000000	 1.726000 
628.000000	 2.100000 
626.000000	 2.472000 
624.000000	 2.817000 
622.000000	 3.100000 
620.000000	 3.286000 
618.000000	 3.364000 
616.000000	 3.317000 
614.000000	 3.157000 
612.000000	 2.892000 
610.000000	 2.552000 
608.000000	 2.176000 
606.000000	 1.801000 
604.000000	 1.508000 
602.000000	 1.295000 
600.000000	 1.236000 
598.000000	 1.328000 
596.000000	 1.582000 
594.000000	 1.971000 
592.000000	 2.451000 
590.000000	 2.977000 
588.000000	 3.486000 
586.000000	 3.904000 
584.000000	 4.189000 
582.000000	 4.302000 
580.000000	 4.230000 
578.000000	 3.969000 
576.000000	 3.577000 
574.000000	 3.091000 
572.000000	 2.593000 
570.000000	 2.160000 
568.000000	 1.845000 
566.000000	 1.744000 
564.000000	 1.911000 
562.000000	 2.298000 
560.000000	 2.877000 
558.000000	 3.531000 
556.000000	 4.240000 
554.000000	 4.814000 
552.000000	 5.220000 
550.000000	 5.365000 
548.000000	 5.265000 
546.000000	 4.904000 
544.000000	 4.375000 
542.000000	 3.715000 
540.000000	 3.064000 
538.000000	 2.523000 
536.000000	 2.294000 
534.000000	 2.416000 
532.000000	 2.882000 
530.000000	 3.643000 
528.000000	 4.530000 
526.000000	 5.360000 
524.000000	 5.998000 
522.000000	 6.320000 
520.000000	 6.268000 
518.000000	 5.887000 
516.000000	 5.229000 
514.000000	 4.361000 
512.000000	 3.522000 
510.000000	 2.897000 
508.000000	 2.702000 
506.000000	 3.043000 
504.000000	 3.820000 
502.000000	 4.863000 
500.000000	 5.840999 
498.000000	 6.555999 
496.000000	 6.866000 
494.000000	 6.715000 
492.000000	 6.138000 
490.000000	 5.250000 
488.000000	 4.154999 
486.000000	 3.277000 
484.000000	 2.878000 
482.000000	 3.166000 
480.000000	 4.083000 
478.000000	 5.280000 
476.000000	 6.318000 
474.000000	 6.944000 
472.000000	 7.013999 
470.000000	 6.525000 
468.000000	 5.587000 
466.000000	 4.417999 
464.000000	 3.295000 
462.000000	 2.819000 
460.000000	 3.257000 
458.000000	 4.373000 
456.000000	 5.691000 
454.000000	 6.615000 
452.000000	 6.859999 
450.000000	 6.390000 
448.000000	 5.341000 
446.000000	 4.006000 
444.000000	 2.889000 
442.000000	 2.542000 
440.000000	 3.191000 
438.000000	 4.533000 
436.000000	 5.760000 
434.000000	 6.305000 
432.000000	 5.937000 
430.000000	 4.817000 
428.000000	 3.366000 
426.000000	 2.324000 
424.000000	 2.265000 
422.000000	 3.259000 
420.000000	 4.656000 
418.000000	 5.550999 
416.000000	 5.412999 
414.000000	 4.367000 
412.000000	 2.881000 
410.000000	 1.844000 
408.000000	 1.971000 
406.000000	 3.197000 
404.000000	 4.575000 
402.000000	 5.043000 
400.000000	 4.236000 
398.000000	 2.739000 
396.000000	 1.684000 
394.000000	 1.958000 
392.000000	 3.354000 
390.000000	 4.665000 
388.000000	 4.757000 
386.000000	 3.487000 
384.000000	 1.927000 
382.000000	 1.574000 
380.000000	 3.218000 
378.000000	 4.793000 
376.000000	 5.145000 
374.000000	 3.552000 
372.000000	 1.643000 
370.000000	 2.255000 
368.000000	 4.340999 
366.000000	 5.972000 
364.000000	 5.228000 
362.000000	 2.796000 
360.000000	 2.078000 
358.000000	 4.136000 
356.000000	 6.278000 
354.000000	 6.133999 
352.000000	 3.953000 
350.000000	 2.668000 
348.000000	 4.555000 
346.000000	 6.734000 
344.000000	 6.523000 
342.000000	 4.316000 
340.000000	 3.339000 
338.000000	 5.656000 
336.000000	 7.172000 
334.000000	 5.937000 
332.000000	 4.036000 
330.000000	 4.535000 
328.000000	 6.780000 
326.000000	 7.016000 
324.000000	 4.488000 
322.000000	 4.373000 
320.000000	 6.642000 
318.000000	 6.308999 
316.000000	 3.988000 
314.000000	 4.306000 
312.000000	 5.930000 
310.000000	 4.537999 
308.000000	 3.126000 
306.000000	 4.496000 
304.000000	 4.411000 
302.000000	 2.709000 
300.000000	 3.379000 
298.000000	 3.880000 
296.000000	 2.460000 
294.000000	 3.044000 
292.000000	 3.399000 
290.000000	 2.380000 
288.000000	 3.418000 
286.000000	 3.034000 
284.000000	 3.072000 
282.000000	 4.046000 
280.000000	 3.167000 
278.000000	 4.526000 
276.000000	 4.020000 
274.000000	 4.657000 
272.000000	 4.965000 
270.000000	 4.840000 
268.000000	 5.532999 
266.000000	 5.087000 
264.000000	 5.649000 
262.000000	 5.140000 
260.000000	 5.416000 
258.000000	 4.961000 
256.000000	 4.774000 
254.000000	 4.528000 
252.000000	 4.027000 
250.000000	 3.829000 
248.000000	 3.495000 
246.000000	 3.250000 
244.000000	 3.222000 
242.000000	 3.347000 
240.000000	 3.605000 
238.000000	 3.994000 
236.000000	 4.475000 
234.000000	 4.952000 
232.000000	 5.332000 
230.000000	 5.536000 
228.000000	 5.530000 
226.000000	 5.265000 
224.000000	 4.836000 
222.000000	 4.376000 
220.000000	 4.165000 
218.000000	 4.287000 
216.000000	 4.681000 
214.000000	 5.056000 
212.000000	 5.265000 
210.000000	 5.326000 
208.000000	 5.282000 
206.000000	 5.276000 
204.000000	 5.303000 
202.000000	 5.358000 
200.000000	 5.372000 

