	
	
	
	
1100	21.394
1098	20.957
1096	20.517
1094	20.167
1092	19.779
1090	19.599
1088	19.405
1086	19.23
1084	19.213
1082	19.19
1080	19.255
1078	19.493
1076	19.744
1074	20.09
1072	20.357
1070	20.879
1068	21.382
1066	21.835
1064	22.408
1062	22.954
1060	23.486
1058	24.056
1056	24.668
1054	25.212
1052	25.829
1050	26.409
1048	26.922
1046	27.405
1044	27.848
1042	28.27
1040	28.679
1038	28.96
1036	29.213
1034	29.322
1032	29.43
1030	29.381
1028	29.276
1026	29.136
1024	28.934
1022	28.614
1020	28.263
1018	27.758
1016	27.246
1014	26.65
1012	26.002
1010	25.346
1008	24.599
1006	23.829
1004	23.045
1002	22.201
1000	21.387
998	20.544
996	19.71
994	18.894
992	18.102
990	17.372
988	16.695
986	16.089
984	15.58
982	15.17
980	14.87
978	14.678
976	14.589
974	14.744
972	14.986
970	15.379
968	15.881
966	16.51
964	17.288
962	18.13
960	19.08
958	20.041
956	21.129
954	22.16
952	23.169
950	24.18
948	25.118
946	25.995
944	26.792
942	27.487
940	28.074
938	28.508
936	28.821
934	29.027
932	29.131
930	29.082
928	28.987
926	28.883
924	28.796
922	28.759
920	28.795
918	28.891
916	28.976
914	28.948
912	28.694
910	28.019
908	27.149
906	25.912
904	24.573
902	23.043
900	21.643
898	20.251
896	18.914
894	17.754
892	16.826
890	16.006
888	15.447
886	15.062
884	14.728
882	14.586
880	14.849
878	15.566
876	16.486
874	17.552
872	18.74
870	20.069
868	21.421
866	22.856
864	24.249
862	25.588
860	26.871
858	28.024
856	29.034
854	29.921
852	30.56
850	31.015
848	31.277
846	31.316
844	31.144
842	30.746
840	30.171
838	29.418
836	28.452
834	27.397
832	26.16
830	24.784
828	23.355
826	21.838
824	20.301
822	18.775
820	17.297
818	15.988
816	14.845
814	13.957
812	13.342
810	13.023
808	13.045
806	13.41
804	14.064
802	15.03
800	16.271
798	17.687
796	19.27
794	20.725
792	22.34
790	23.805
788	25.132
786	26.35
784	27.278
782	27.847
780	28.206
778	28.518
776	28.277
774	27.762
772	27.012
770	25.963
768	24.681
766	23.016
764	21.395
762	19.643
760	17.808
758	16.023
756	14.336
754	12.827
752	11.604
750	10.767
748	10.366
746	10.426
744	10.987
742	11.96
740	13.336
738	14.997
736	16.83
734	18.723
732	20.534
730	22.198
728	23.6
726	24.729
724	25.464
722	25.813
720	25.776
718	25.361
716	24.57
714	23.444
712	21.998
710	20.314
708	18.409
706	16.381
704	14.375
702	12.509
700	10.959
698	9.829
696	9.302
694	9.442
692	10.276
690	11.722
688	13.66
686	15.888
684	18.252
682	20.516
680	22.594
678	24.278
676	25.572
674	26.303
672	26.552
670	26.23
668	25.381
666	24.019
664	22.249
662	20.12
660	17.766
658	15.367
656	13.194
654	11.473
652	10.433
650	10.276
648	11.094
646	12.818
644	15.297
642	18.243
640	21.371
638	24.275
636	26.749
634	28.613
632	29.729
630	30.1
628	29.717
626	28.618
624	26.849
622	24.497
620	21.697
618	18.703
616	15.947
614	13.738
612	12.587
610	12.827
608	14.52
606	17.387
604	21.038
602	25
600	28.607
598	31.585
596	33.686
594	34.816
592	34.937
590	34.007
588	32.085
586	29.244
584	25.573
582	21.716
580	18.263
578	15.932
576	15.377
574	16.872
572	20.142
570	24.401
568	28.858
566	32.848
564	35.835
562	37.606
560	38.028
558	36.665
556	34.379
554	31.102
552	26.784
550	22.215
548	18.361
546	16.383
544	17.143
542	20.485
540	25.392
538	30.622
536	35.139
534	38.215
532	39.582
530	39.235
528	37.154
526	33.343
524	28.154
522	22.435
520	17.724
518	15.829
516	17.66
514	22.532
512	28.548
510	33.957
508	37.562
506	38.916
504	38.014
502	34.817
500	29.603
498	22.884
496	16.703
494	13.552
492	15.148
490	20.725
488	27.536
486	33.251
484	36.328
482	36.47
480	33.58
478	27.804
476	20.331
474	13.573
472	11.076
470	14.485
468	21.798
466	29.191
464	33.977
462	35.054
460	32.02
458	25.197
456	16.433
454	10.009
452	10.552
450	17.894
448	26.996
446	33.554
444	35.551
442	32.391
440	24.519
438	14.652
436	9.302
434	13.814
432	24.585
430	34.01
428	37.975
426	35.396
424	26.55
422	15.073
420	10.72
418	18.778
416	32.17
414	41.295
412	42.77
410	35.97
408	22.498
406	13.111
404	21.005
402	37.082
400	46.923
