Wavelength(nm)	Response
3.300000000000000000e+02	6.973398603176840993e+01
3.310000000000000000e+02	7.224033726559649438e+01
3.320000000000000000e+02	7.021389548541445436e+01
3.330000000000000000e+02	6.337348905698601698e+01
3.340000000000000000e+02	5.088553786342087903e+01
3.350000000000000000e+02	3.362546667792571498e+01
3.360000000000000000e+02	1.966883916173335223e+01
3.370000000000000000e+02	2.167927115598416776e+01
3.380000000000000000e+02	3.708807309480960868e+01
3.390000000000000000e+02	5.300800862483178832e+01
3.400000000000000000e+02	6.377743564565068368e+01
3.410000000000000000e+02	6.933216641116747780e+01
3.420000000000000000e+02	7.052669225852254442e+01
3.430000000000000000e+02	6.766081081008913145e+01
3.440000000000000000e+02	6.032669968177657438e+01
3.450000000000000000e+02	4.791633990028711310e+01
3.460000000000000000e+02	3.178959509271068029e+01
3.470000000000000000e+02	1.949603649060867383e+01
3.480000000000000000e+02	2.149930057636458614e+01
3.490000000000000000e+02	3.572020796225420725e+01
3.500000000000000000e+02	5.119406027416120253e+01
3.510000000000000000e+02	6.232852935616634227e+01
3.520000000000000000e+02	6.867422012145775057e+01
3.530000000000000000e+02	7.097058496781080805e+01
3.540000000000000000e+02	6.961388900600198326e+01
3.550000000000000000e+02	6.439527638184850389e+01
3.560000000000000000e+02	5.465278563826386460e+01
3.570000000000000000e+02	4.022736148251432553e+01
3.580000000000000000e+02	2.459347576711989092e+01
3.590000000000000000e+02	1.766210606971541353e+01
3.600000000000000000e+02	2.603292886585152033e+01
3.610000000000000000e+02	4.216042858088164280e+01
3.620000000000000000e+02	5.650242037417881136e+01
3.630000000000000000e+02	6.605868509868807337e+01
3.640000000000000000e+02	7.119562449384133629e+01
3.650000000000000000e+02	7.267433747394066756e+01
3.660000000000000000e+02	7.080183543169403038e+01
3.670000000000000000e+02	6.536047739366205178e+01
3.680000000000000000e+02	5.579078355921848242e+01
3.690000000000000000e+02	4.200859108723284407e+01
3.700000000000000000e+02	2.676357401709578454e+01
3.710000000000000000e+02	1.785729472810263019e+01
3.720000000000000000e+02	2.201237664463671351e+01
3.730000000000000000e+02	3.520973959200894399e+01
3.740000000000000000e+02	4.903851076267629594e+01
3.750000000000000000e+02	5.946534722489893454e+01
3.760000000000000000e+02	6.604492739222314412e+01
3.770000000000000000e+02	6.933111258390266585e+01
3.780000000000000000e+02	6.981372603139163857e+01
3.790000000000000000e+02	6.768017282790152933e+01
3.800000000000000000e+02	6.282500837116130299e+01
3.810000000000000000e+02	5.500611199612923485e+01
3.820000000000000000e+02	4.427887993369949982e+01
3.830000000000000000e+02	3.198294069317515920e+01
3.840000000000000000e+02	2.185061749154577626e+01
3.850000000000000000e+02	1.878553309942785887e+01
3.860000000000000000e+02	2.429365663299128997e+01
3.870000000000000000e+02	3.483009300563104205e+01
3.880000000000000000e+02	4.582805181914974924e+01
3.890000000000000000e+02	5.479977062539501276e+01
3.900000000000000000e+02	6.112455546190349764e+01
3.910000000000000000e+02	6.495923019654956931e+01
3.920000000000000000e+02	6.658532427055304481e+01
3.930000000000000000e+02	6.618187243819947696e+01
3.940000000000000000e+02	6.378408320743398008e+01
3.950000000000000000e+02	5.931487552127752849e+01
3.960000000000000000e+02	5.268935584613923595e+01
3.970000000000000000e+02	4.406392911694744896e+01
3.980000000000000000e+02	3.428277739601386997e+01
3.990000000000000000e+02	2.533692371727856596e+01
4.000000000000000000e+02	2.011881324470646959e+01
4.010000000000000000e+02	2.074305286348017319e+01
4.020000000000000000e+02	2.672174713814488456e+01
4.030000000000000000e+02	3.547337762847718068e+01
4.040000000000000000e+02	4.439826843449210969e+01
4.050000000000000000e+02	5.199689431242306625e+01
4.060000000000000000e+02	5.774280540848518228e+01
4.070000000000000000e+02	6.162078223201834248e+01
4.080000000000000000e+02	6.377638076003779588e+01
4.090000000000000000e+02	6.434194985049821014e+01
4.100000000000000000e+02	6.337865257506655325e+01
4.110000000000000000e+02	6.088103656060738444e+01
4.120000000000000000e+02	5.680760004126534568e+01
4.130000000000000000e+02	5.115035652803172184e+01
4.140000000000000000e+02	4.406995139984950072e+01
4.150000000000000000e+02	3.610780630877034980e+01
4.160000000000000000e+02	2.840371032057920075e+01
4.170000000000000000e+02	2.265622851713927943e+01
4.180000000000000000e+02	2.051129016406493477e+01
4.190000000000000000e+02	2.259193198386402202e+01
4.200000000000000000e+02	2.807571164757631266e+01
4.210000000000000000e+02	3.529541633076488694e+01
4.220000000000000000e+02	4.267979207839645284e+01
4.230000000000000000e+02	4.923158452557979103e+01
4.240000000000000000e+02	5.449982250057472299e+01
4.250000000000000000e+02	5.837159194876220170e+01
4.260000000000000000e+02	6.088919767027125829e+01
4.270000000000000000e+02	6.213598440222114050e+01
4.280000000000000000e+02	6.217710487759558191e+01
4.290000000000000000e+02	6.103912103123423094e+01
4.300000000000000000e+02	5.871452251468598149e+01
4.310000000000000000e+02	5.518508842079465637e+01
4.320000000000000000e+02	5.046990446556156940e+01
4.330000000000000000e+02	4.470038264487013180e+01
4.340000000000000000e+02	3.821757735881544704e+01
4.350000000000000000e+02	3.166014064937342454e+01
4.360000000000000000e+02	2.598756283700465630e+01
4.370000000000000000e+02	2.232236511703163728e+01
4.380000000000000000e+02	2.153726697821097602e+01
4.390000000000000000e+02	2.378448960603561702e+01
4.400000000000000000e+02	2.840081549970811281e+01
4.410000000000000000e+02	3.430025135859089858e+01
4.420000000000000000e+02	4.046811768927594954e+01
4.430000000000000000e+02	4.619551402759988434e+01
4.440000000000000000e+02	5.108214110221402393e+01
4.450000000000000000e+02	5.494502355289472462e+01
4.460000000000000000e+02	5.774127037329279233e+01
4.470000000000000000e+02	5.949842946788041331e+01
4.480000000000000000e+02	6.026698816509419032e+01
4.490000000000000000e+02	6.008012584013138735e+01
4.500000000000000000e+02	5.894370291517105898e+01
4.510000000000000000e+02	5.684965208080954824e+01
4.520000000000000000e+02	5.380050529827950356e+01
4.530000000000000000e+02	4.983616914336413117e+01
4.540000000000000000e+02	4.506314238900763769e+01
4.550000000000000000e+02	3.969824729326019508e+01
4.560000000000000000e+02	3.413047714016730794e+01
4.570000000000000000e+02	2.895242835429073835e+01
4.580000000000000000e+02	2.490616245670911155e+01
4.590000000000000000e+02	2.269371349032398655e+01
4.600000000000000000e+02	2.272285475849142955e+01
4.610000000000000000e+02	2.493462532502129392e+01
4.620000000000000000e+02	2.883699540743429424e+01
4.630000000000000000e+02	3.371742230177735422e+01
4.640000000000000000e+02	3.888854230255418543e+01
4.650000000000000000e+02	4.383402203193298163e+01
4.660000000000000000e+02	4.822822438128618217e+01
4.670000000000000000e+02	5.189493096743849776e+01
4.680000000000000000e+02	5.474733043922094566e+01
4.690000000000000000e+02	5.676131334637062764e+01
4.700000000000000000e+02	5.794969341488463499e+01
4.710000000000000000e+02	5.834343598547181386e+01
4.720000000000000000e+02	5.796848931039488662e+01
4.730000000000000000e+02	5.683059877073974064e+01
4.740000000000000000e+02	5.491940444225475915e+01
4.750000000000000000e+02	5.223646413156728840e+01
4.760000000000000000e+02	4.882440444624512565e+01
4.770000000000000000e+02	4.478981706025392384e+01
4.780000000000000000e+02	4.031870316432491563e+01
4.790000000000000000e+02	3.566790639655214079e+01
4.800000000000000000e+02	3.119263929807540237e+01
4.810000000000000000e+02	2.734147972356755929e+01
4.820000000000000000e+02	2.460816162916041350e+01
4.830000000000000000e+02	2.340368442348129108e+01
4.840000000000000000e+02	2.390173129243352790e+01
4.850000000000000000e+02	2.597619629613910419e+01
4.860000000000000000e+02	2.926211503061245978e+01
4.870000000000000000e+02	3.328774118538084537e+01
4.880000000000000000e+02	3.759447153661339058e+01
4.890000000000000000e+02	4.181105657940625520e+01
4.900000000000000000e+02	4.567572586565862025e+01
4.910000000000000000e+02	4.902753765401605790e+01
4.920000000000000000e+02	5.178188971298088461e+01
4.930000000000000000e+02	5.390364902467459274e+01
4.940000000000000000e+02	5.538551922539950567e+01
4.950000000000000000e+02	5.623475126201657304e+01
4.960000000000000000e+02	5.646425432532008415e+01
4.970000000000000000e+02	5.608764103363542119e+01
4.980000000000000000e+02	5.511592825748751068e+01
4.990000000000000000e+02	5.355794280426557918e+01
5.000000000000000000e+02	5.142526265008910968e+01
5.010000000000000000e+02	4.874250206806702579e+01
5.020000000000000000e+02	4.556560384972608091e+01
5.030000000000000000e+02	4.199496546186546198e+01
5.040000000000000000e+02	3.818769758720436869e+01
5.050000000000000000e+02	3.436090548133712730e+01
5.060000000000000000e+02	3.077647328339779875e+01
5.070000000000000000e+02	2.772964313811586834e+01
5.080000000000000000e+02	2.551536168412156869e+01
5.090000000000000000e+02	2.437701181774987447e+01
5.100000000000000000e+02	2.444790088952200335e+01
5.110000000000000000e+02	2.570157599960986516e+01
5.120000000000000000e+02	2.795754958433803594e+01
5.130000000000000000e+02	3.093348963038976862e+01
5.140000000000000000e+02	3.432227091889274817e+01
5.150000000000000000e+02	3.784784342006496871e+01
5.160000000000000000e+02	4.128878840631089986e+01
5.170000000000000000e+02	4.448392413419520608e+01
5.180000000000000000e+02	4.732282188223860686e+01
5.190000000000000000e+02	4.973509928549565018e+01
5.200000000000000000e+02	5.168321502627321706e+01
5.210000000000000000e+02	5.315199475887150982e+01
5.220000000000000000e+02	5.414041887348869864e+01
5.230000000000000000e+02	5.465502622696369883e+01
5.240000000000000000e+02	5.470367453425802751e+01
5.250000000000000000e+02	5.429343196944680017e+01
5.260000000000000000e+02	5.343051923183459451e+01
5.270000000000000000e+02	5.212314488054663286e+01
5.280000000000000000e+02	5.038632708278819905e+01
5.290000000000000000e+02	4.824607812373557891e+01
5.300000000000000000e+02	4.574458131888034984e+01
5.310000000000000000e+02	4.294478553623654449e+01
5.320000000000000000e+02	3.993238861697213338e+01
5.330000000000000000e+02	3.682109494852494436e+01
5.340000000000000000e+02	3.375418042747897118e+01
5.350000000000000000e+02	3.090021135954007292e+01
5.360000000000000000e+02	2.844219106846050593e+01
5.370000000000000000e+02	2.655815864188293673e+01
5.380000000000000000e+02	2.539552476536050563e+01
5.390000000000000000e+02	2.504626757773086965e+01
5.400000000000000000e+02	2.552983066372564736e+01
5.410000000000000000e+02	2.678796575158348858e+01
5.420000000000000000e+02	2.869580668308718430e+01
5.430000000000000000e+02	3.108620950538424665e+01
5.440000000000000000e+02	3.377759638792672803e+01
5.450000000000000000e+02	3.659958010144273999e+01
5.460000000000000000e+02	3.941058180467253180e+01
5.470000000000000000e+02	4.209969688337906746e+01
5.480000000000000000e+02	4.458489485269519292e+01
5.490000000000000000e+02	4.680860373477750613e+01
5.500000000000000000e+02	4.872982658524940547e+01
5.510000000000000000e+02	5.032046853472218118e+01
5.520000000000000000e+02	5.156590244563528813e+01
5.530000000000000000e+02	5.246166708937349199e+01
5.540000000000000000e+02	5.301069910683932562e+01
5.550000000000000000e+02	5.322149719320590577e+01
5.560000000000000000e+02	5.310363908435684266e+01
5.570000000000000000e+02	5.266496865690612594e+01
5.580000000000000000e+02	5.191165070799840464e+01
5.590000000000000000e+02	5.084898064815114083e+01
5.600000000000000000e+02	4.948516248278984619e+01
5.610000000000000000e+02	4.783587170986653803e+01
5.620000000000000000e+02	4.592571518919788787e+01
5.630000000000000000e+02	4.379041587454163675e+01
5.640000000000000000e+02	4.147879514554574598e+01
5.650000000000000000e+02	3.905152050349623494e+01
5.660000000000000000e+02	3.657971484809424112e+01
5.670000000000000000e+02	3.414701112054306975e+01
5.680000000000000000e+02	3.184780486079991135e+01
5.690000000000000000e+02	2.978309288127429255e+01
5.700000000000000000e+02	2.805496308354373980e+01
5.710000000000000000e+02	2.675763480466525834e+01
5.720000000000000000e+02	2.596453096396320248e+01
5.730000000000000000e+02	2.571863618882008495e+01
5.740000000000000000e+02	2.602674481373853155e+01
5.750000000000000000e+02	2.685881555351688377e+01
5.760000000000000000e+02	2.815287348800200817e+01
5.770000000000000000e+02	2.982430126994785979e+01
5.780000000000000000e+02	3.177633976094275425e+01
5.790000000000000000e+02	3.391004382338010714e+01
5.800000000000000000e+02	3.613231740881229825e+01
5.810000000000000000e+02	3.836175412035790089e+01
5.820000000000000000e+02	4.053090660262476774e+01
5.830000000000000000e+02	4.258613277993016055e+01
5.840000000000000000e+02	4.448656810403417694e+01
5.850000000000000000e+02	4.620236670511157939e+01
5.860000000000000000e+02	4.771254844350529822e+01
5.870000000000000000e+02	4.900306275453297644e+01
5.880000000000000000e+02	5.006545960026346620e+01
5.890000000000000000e+02	5.089541892058389294e+01
5.900000000000000000e+02	5.149152747240600547e+01
5.910000000000000000e+02	5.185434755928856987e+01
5.920000000000000000e+02	5.198563375310030210e+01
5.930000000000000000e+02	5.188800680544609634e+01
5.940000000000000000e+02	5.156494243925442333e+01
5.950000000000000000e+02	5.102084573970631709e+01
5.960000000000000000e+02	5.026130888694862620e+01
5.970000000000000000e+02	4.929356472879048567e+01
5.980000000000000000e+02	4.812713611486027787e+01
5.990000000000000000e+02	4.677437795058430936e+01
6.000000000000000000e+02	4.525121842970617791e+01
6.010000000000000000e+02	4.357800953727901572e+01
6.020000000000000000e+02	4.178035505396725569e+01
6.030000000000000000e+02	3.988972377765048805e+01
6.040000000000000000e+02	3.794378828071330645e+01
6.050000000000000000e+02	3.598679259848159973e+01
6.060000000000000000e+02	3.406909952584807399e+01
6.070000000000000000e+02	3.224591315961212956e+01
6.080000000000000000e+02	3.057513525865815041e+01
6.090000000000000000e+02	2.911434323400289514e+01
6.100000000000000000e+02	2.791696369920395782e+01
6.110000000000000000e+02	2.702827779635076411e+01
6.120000000000000000e+02	2.648180530027589796e+01
6.130000000000000000e+02	2.629651197453260636e+01
6.140000000000000000e+02	2.647529097814257426e+01
6.150000000000000000e+02	2.700502790240666684e+01
6.160000000000000000e+02	2.785802682460531443e+01
6.170000000000000000e+02	2.899442568901732642e+01
6.180000000000000000e+02	3.036568174485952198e+01
6.190000000000000000e+02	3.191840041746011281e+01
6.200000000000000000e+02	3.359797422142293044e+01
6.210000000000000000e+02	3.535182105113290163e+01
6.220000000000000000e+02	3.713212578542363929e+01
6.230000000000000000e+02	3.889698625821917943e+01
6.240000000000000000e+02	4.061088943739165558e+01
6.250000000000000000e+02	4.224467783404617904e+01
6.260000000000000000e+02	4.377511719942719282e+01
6.270000000000000000e+02	4.518413650629351253e+01
6.280000000000000000e+02	4.645750673123274055e+01
6.290000000000000000e+02	4.758450975190072540e+01
6.300000000000000000e+02	4.855757396393352820e+01
6.310000000000000000e+02	4.937166728184308795e+01
6.320000000000000000e+02	5.002376726972759968e+01
6.330000000000000000e+02	5.051242824399858478e+01
6.340000000000000000e+02	5.083762745408736805e+01
6.350000000000000000e+02	5.100045066535020055e+01
6.360000000000000000e+02	5.100257713856464648e+01
6.370000000000000000e+02	5.084615188097606620e+01
6.380000000000000000e+02	5.053375717946913426e+01
6.390000000000000000e+02	5.006845580230809389e+01
6.400000000000000000e+02	4.945389873499232181e+01
6.410000000000000000e+02	4.869451880244581332e+01
6.420000000000000000e+02	4.779583039320682758e+01
6.430000000000000000e+02	4.676472658947965755e+01
6.440000000000000000e+02	4.560980158272412410e+01
6.450000000000000000e+02	4.434169897889519518e+01
6.460000000000000000e+02	4.297346620212891111e+01
6.470000000000000000e+02	4.152089804914687932e+01
6.480000000000000000e+02	4.000282372333541758e+01
6.490000000000000000e+02	3.844125625118006440e+01
6.500000000000000000e+02	3.686140749868140176e+01
6.510000000000000000e+02	3.529150312412468793e+01
6.520000000000000000e+02	3.376234723396912329e+01
6.530000000000000000e+02	3.230660221239197938e+01
6.540000000000000000e+02	3.095773829251388065e+01
6.550000000000000000e+02	2.974881711783928750e+01
6.560000000000000000e+02	2.871112800196399562e+01
6.570000000000000000e+02	2.787260634967681483e+01
6.580000000000000000e+02	2.725628740021407026e+01
6.590000000000000000e+02	2.687894431766994785e+01
6.600000000000000000e+02	2.675005792224055767e+01
6.610000000000000000e+02	2.687117612368936648e+01
6.620000000000000000e+02	2.723580952577600911e+01
6.630000000000000000e+02	2.782997868053938717e+01
6.640000000000000000e+02	2.863322079939894138e+01
6.650000000000000000e+02	2.961994470525777601e+01
6.660000000000000000e+02	3.076098007858424666e+01
6.670000000000000000e+02	3.202516290277780797e+01
6.680000000000000000e+02	3.338085721287011154e+01
6.690000000000000000e+02	3.479724303376281114e+01
6.700000000000000000e+02	3.624526022829005001e+01
6.710000000000000000e+02	3.769830659212487944e+01
6.720000000000000000e+02	3.913266812848988252e+01
6.730000000000000000e+02	4.052771255359501623e+01
6.740000000000000000e+02	4.186589178522793731e+01
6.750000000000000000e+02	4.313257922299489167e+01
6.760000000000000000e+02	4.431581038637435199e+01
6.770000000000000000e+02	4.540604671490138600e+01
6.780000000000000000e+02	4.639587386747224684e+01
6.790000000000000000e+02	4.727969077604918624e+01
6.800000000000000000e+02	4.805341398023485056e+01
6.810000000000000000e+02	4.871420843961056590e+01
6.820000000000000000e+02	4.926024954217157870e+01
6.830000000000000000e+02	4.969050346779300753e+01
6.840000000000000000e+02	5.000455153124514140e+01
6.850000000000000000e+02	5.020246633607882814e+01
6.860000000000000000e+02	5.028472152698611808e+01
6.870000000000000000e+02	5.025213398612291371e+01
6.880000000000000000e+02	5.010583645360787841e+01
6.890000000000000000e+02	4.984727882351363348e+01
6.900000000000000000e+02	4.947828288973077804e+01
6.910000000000000000e+02	4.900112628815969629e+01
6.920000000000000000e+02	4.841856165758002106e+01
6.930000000000000000e+02	4.773390130730304293e+01
6.940000000000000000e+02	4.695112954743355260e+01
6.950000000000000000e+02	4.607503160573148193e+01
6.960000000000000000e+02	4.511133524421676100e+01
6.970000000000000000e+02	4.406685881268240479e+01
6.980000000000000000e+02	4.294964550597802599e+01
6.990000000000000000e+02	4.176913641605607808e+01
7.000000000000000000e+02	4.053633181021265131e+01
7.010000000000000000e+02	3.926388412053086086e+01
7.020000000000000000e+02	3.796613819775082277e+01
7.030000000000000000e+02	3.665910276826758007e+01
7.040000000000000000e+02	3.536033597830118680e+01
7.050000000000000000e+02	3.408872976374096453e+01
7.060000000000000000e+02	3.286415995518746058e+01
7.070000000000000000e+02	3.170697331295612642e+01
7.080000000000000000e+02	3.063742209670940397e+01
7.090000000000000000e+02	2.967504613603139063e+01
7.100000000000000000e+02	2.883800897083229131e+01
7.110000000000000000e+02	2.814242760736692617e+01
7.120000000000000000e+02	2.760174202416797584e+01
7.130000000000000000e+02	2.722617509214165210e+01
7.140000000000000000e+02	2.702244313249833141e+01
7.150000000000000000e+02	2.699358507817789388e+01
7.160000000000000000e+02	2.713873386399313148e+01
7.170000000000000000e+02	2.745316122287029614e+01
7.180000000000000000e+02	2.792851122533813069e+01
7.190000000000000000e+02	2.855319309652377058e+01
7.200000000000000000e+02	2.931289974710648139e+01
7.210000000000000000e+02	3.019120968197637467e+01
7.220000000000000000e+02	3.117014892530564651e+01
7.230000000000000000e+02	3.223078200917506564e+01
7.240000000000000000e+02	3.335404269075068839e+01
7.250000000000000000e+02	3.452131430104549281e+01
7.260000000000000000e+02	3.571487739351525192e+01
7.270000000000000000e+02	3.691824636689132433e+01
7.280000000000000000e+02	3.811639823533821669e+01
7.290000000000000000e+02	3.929590355397950674e+01
7.300000000000000000e+02	4.044497431922409447e+01
7.310000000000000000e+02	4.155342110735909245e+01
7.320000000000000000e+02	4.261249798940086464e+01
7.330000000000000000e+02	4.361477777529077571e+01
7.340000000000000000e+02	4.455403658897812136e+01
7.350000000000000000e+02	4.542512915167782239e+01
7.360000000000000000e+02	4.622386182610559757e+01
7.370000000000000000e+02	4.694686893794566629e+01
7.380000000000000000e+02	4.759149637209424810e+01
7.390000000000000000e+02	4.815572562273706581e+01
7.400000000000000000e+02	4.863819545758793339e+01
7.410000000000000000e+02	4.903806688001958491e+01
7.420000000000000000e+02	4.935491858916991248e+01
7.430000000000000000e+02	4.958867932133367162e+01
7.440000000000000000e+02	4.973957322189681918e+01
7.450000000000000000e+02	4.980807772327010241e+01
7.460000000000000000e+02	4.979489325209117112e+01
7.470000000000000000e+02	4.970092398716955984e+01
7.480000000000000000e+02	4.952723145449714082e+01
7.490000000000000000e+02	4.927494771212808189e+01
7.500000000000000000e+02	4.894535993134508089e+01
7.510000000000000000e+02	4.853995400810585181e+01
7.520000000000000000e+02	4.806044825614686289e+01
7.530000000000000000e+02	4.750883484350612918e+01
7.540000000000000000e+02	4.688742831265250288e+01
7.550000000000000000e+02	4.619892036206240959e+01
7.560000000000000000e+02	4.544643982888253220e+01
7.570000000000000000e+02	4.463363862438136920e+01
7.580000000000000000e+02	4.376483110320218373e+01
7.590000000000000000e+02	4.284500208002253885e+01
7.600000000000000000e+02	4.187984025877371863e+01
7.610000000000000000e+02	4.087578323295245752e+01
7.620000000000000000e+02	3.984005000717473877e+01
7.630000000000000000e+02	3.878065660350704036e+01
7.640000000000000000e+02	3.770641010320738218e+01
7.650000000000000000e+02	3.662687651497928698e+01
7.660000000000000000e+02	3.555231062296540756e+01
7.670000000000000000e+02	3.449349485257296521e+01
7.680000000000000000e+02	3.346166265294962727e+01
7.690000000000000000e+02	3.246839340249080408e+01
7.700000000000000000e+02	3.152542238727016510e+01
7.710000000000000000e+02	3.064441727816301153e+01
7.720000000000000000e+02	2.983672737104009087e+01
7.730000000000000000e+02	2.911311388880018569e+01
7.740000000000000000e+02	2.848347209499641508e+01
7.750000000000000000e+02	2.795655790859262169e+01
7.760000000000000000e+02	2.753972052533224613e+01
7.770000000000000000e+02	2.723862805280305111e+01
7.780000000000000000e+02	2.705708682078262228e+01
7.790000000000000000e+02	2.699693733178104793e+01
7.800000000000000000e+02	2.705801616954907018e+01
7.810000000000000000e+02	2.723818804428757545e+01
7.820000000000000000e+02	2.753344536146548904e+01
7.830000000000000000e+02	2.793806839429480604e+01
7.840000000000000000e+02	2.844483557347716385e+01
7.850000000000000000e+02	2.904527158243823237e+01
7.860000000000000000e+02	2.972996903313861239e+01
7.870000000000000000e+02	3.048889648721833723e+01
7.880000000000000000e+02	3.131157541209921646e+01
7.890000000000000000e+02	3.218731375916894422e+01
7.900000000000000000e+02	3.310542707336475132e+01
7.910000000000000000e+02	3.405543253136755766e+01
7.920000000000000000e+02	3.502721222748962759e+01
7.930000000000000000e+02	3.601114416993344491e+01
7.940000000000000000e+02	3.699820129201620489e+01
7.950000000000000000e+02	3.798002019338522217e+01
7.960000000000000000e+02	3.894893484862723199e+01
7.970000000000000000e+02	3.989800584270624029e+01
7.980000000000000000e+02	4.082105741571628243e+01
7.990000000000000000e+02	4.171266127604789631e+01
8.000000000000000000e+02	4.256810219447042698e+01
8.010000000000000000e+02	4.338333367359032167e+01
8.020000000000000000e+02	4.415492710034303769e+01
8.030000000000000000e+02	4.488001726814261616e+01
8.040000000000000000e+02	4.555624663095341731e+01
8.050000000000000000e+02	4.618171015536614732e+01
8.060000000000000000e+02	4.675488679936263736e+01
8.070000000000000000e+02	4.727451732424856345e+01
8.080000000000000000e+02	4.773960638785324306e+01
8.090000000000000000e+02	4.814941157683030326e+01
8.100000000000000000e+02	4.850341054332638180e+01
8.110000000000000000e+02	4.880127228431454967e+01
8.120000000000000000e+02	4.904283259282560437e+01
8.130000000000000000e+02	4.922807361732927234e+01
8.140000000000000000e+02	4.935710741554393621e+01
8.150000000000000000e+02	4.943016335648287907e+01
8.160000000000000000e+02	4.944757959571447259e+01
8.170000000000000000e+02	4.940982547465176822e+01
8.180000000000000000e+02	4.931750759844794629e+01
8.190000000000000000e+02	4.917131521764014224e+01
8.200000000000000000e+02	4.897201667631647126e+01
8.210000000000000000e+02	4.872046403625194699e+01
8.220000000000000000e+02	4.841760041462329411e+01
8.230000000000000000e+02	4.806446984447202908e+01
8.240000000000000000e+02	4.766222946524042925e+01
8.250000000000000000e+02	4.721216384059476923e+01
8.260000000000000000e+02	4.671570118127681326e+01
8.270000000000000000e+02	4.617443136236745715e+01
8.280000000000000000e+02	4.559013206014940067e+01
8.290000000000000000e+02	4.496479843050370562e+01
8.300000000000000000e+02	4.430066098282426879e+01
8.310000000000000000e+02	4.360020553597051673e+01
8.320000000000000000e+02	4.286619270515596725e+01
8.330000000000000000e+02	4.210167584746857017e+01
8.340000000000000000e+02	4.131001665847870186e+01
8.350000000000000000e+02	4.049489752853028079e+01
8.360000000000000000e+02	3.966032969660225405e+01
8.370000000000000000e+02	3.881065619017907409e+01
8.380000000000000000e+02	3.795054852047479699e+01
8.390000000000000000e+02	3.708499612332084183e+01
8.400000000000000000e+02	3.621928760657915802e+01
8.410000000000000000e+02	3.535898299380332332e+01
8.420000000000000000e+02	3.450987634773035495e+01
8.430000000000000000e+02	3.367794841957395136e+01
8.440000000000000000e+02	3.286930930026521480e+01
8.450000000000000000e+02	3.209013144144760332e+01
8.460000000000000000e+02	3.134657385462157464e+01
8.470000000000000000e+02	3.064469876720621500e+01
8.480000000000000000e+02	2.999038248716960808e+01
8.490000000000000000e+02	2.938922263015991376e+01
8.500000000000000000e+02	2.884644436420057190e+01
8.510000000000000000e+02	2.836680861476964566e+01
8.520000000000000000e+02	2.795452518132555042e+01
8.530000000000000000e+02	2.761317385652365886e+01
8.540000000000000000e+02	2.734563646705476359e+01
8.550000000000000000e+02	2.715404239903992689e+01
8.560000000000000000e+02	2.703972955889344121e+01
8.570000000000000000e+02	2.700322365954545489e+01
8.580000000000000000e+02	2.704423518178418107e+01
8.590000000000000000e+02	2.716167368579926489e+01
8.600000000000000000e+02	2.735367938037607161e+01
8.610000000000000000e+02	2.761767057199219977e+01
8.620000000000000000e+02	2.795040500108406434e+01
8.630000000000000000e+02	2.834805259969961000e+01
8.640000000000000000e+02	2.880627688513480678e+01
8.650000000000000000e+02	2.932032204768361439e+01
8.660000000000000000e+02	2.988510279377936030e+01
8.670000000000000000e+02	3.049529415333572047e+01
8.680000000000000000e+02	3.114541872780291243e+01
8.690000000000000000e+02	3.182992921332492386e+01
8.700000000000000000e+02	3.254328444899687156e+01
8.710000000000000000e+02	3.328001768183960962e+01
8.720000000000000000e+02	3.403479617917651723e+01
8.730000000000000000e+02	3.480247173192903887e+01
8.740000000000000000e+02	3.557812196120215731e+01
8.750000000000000000e+02	3.635708265369939340e+01
8.760000000000000000e+02	3.713497160304974898e+01
8.770000000000000000e+02	3.790770462306488753e+01
8.780000000000000000e+02	3.867150452820838069e+01
8.790000000000000000e+02	3.942290395193234076e+01
8.800000000000000000e+02	4.015874290261390200e+01
8.810000000000000000e+02	4.087616194798152236e+01
8.820000000000000000e+02	4.157259188072534073e+01
8.830000000000000000e+02	4.224574065846692861e+01
8.840000000000000000e+02	4.289357833766332107e+01
8.850000000000000000e+02	4.351432063950548468e+01
8.860000000000000000e+02	4.410641170148648627e+01
8.870000000000000000e+02	4.466850648500052046e+01
8.880000000000000000e+02	4.519945322995850745e+01
8.890000000000000000e+02	4.569827627397892655e+01
8.900000000000000000e+02	4.616415948745272146e+01
8.910000000000000000e+02	4.659643051728953367e+01
8.920000000000000000e+02	4.699454598156284391e+01
8.930000000000000000e+02	4.735807771438004465e+01
8.940000000000000000e+02	4.768670012461647900e+01
8.950000000000000000e+02	4.798017870307428723e+01
8.960000000000000000e+02	4.823835968944995045e+01
8.970000000000000000e+02	4.846116089245551706e+01
8.980000000000000000e+02	4.864856364283541268e+01
8.990000000000000000e+02	4.880060584912030208e+01
9.000000000000000000e+02	4.891737611912570571e+01
9.010000000000000000e+02	4.899900890582534885e+01
9.020000000000000000e+02	4.904568063377894305e+01
9.030000000000000000e+02	4.905760676128640796e+01
9.040000000000000000e+02	4.903503973346667522e+01
9.050000000000000000e+02	4.897826778214273702e+01
9.060000000000000000e+02	4.888761452944658004e+01
9.070000000000000000e+02	4.876343935315657063e+01
9.080000000000000000e+02	4.860613847270590782e+01
9.090000000000000000e+02	4.841614671534782133e+01
9.100000000000000000e+02	4.819393992194354581e+01
9.110000000000000000e+02	4.794003795110031518e+01
9.120000000000000000e+02	4.765500823878291214e+01
9.130000000000000000e+02	4.733946986794963863e+01
9.140000000000000000e+02	4.699409809910624602e+01
9.150000000000000000e+02	4.661962930788097026e+01
9.160000000000000000e+02	4.621686626972558543e+01
9.170000000000000000e+02	4.578668372465243408e+01
9.180000000000000000e+02	4.533003414650751495e+01
9.190000000000000000e+02	4.484795363176111493e+01
9.200000000000000000e+02	4.434156781223386190e+01
9.210000000000000000e+02	4.381209768476942656e+01
9.220000000000000000e+02	4.326086523883417101e+01
9.230000000000000000e+02	4.268929875069397895e+01
9.240000000000000000e+02	4.209893760055194889e+01
9.250000000000000000e+02	4.149143645734436348e+01
9.260000000000000000e+02	4.086856866531685739e+01
9.270000000000000000e+02	4.023222865770416945e+01
9.280000000000000000e+02	3.958443321653894031e+01
9.290000000000000000e+02	3.892732139458509977e+01
9.300000000000000000e+02	3.826315291649682138e+01
9.310000000000000000e+02	3.759430488229380529e+01
9.320000000000000000e+02	3.692326660801481353e+01
9.330000000000000000e+02	3.625263245656319100e+01
9.340000000000000000e+02	3.558509253696157515e+01
9.350000000000000000e+02	3.492342118276214080e+01
9.360000000000000000e+02	3.427046316039098883e+01
9.370000000000000000e+02	3.362911760546580098e+01
9.380000000000000000e+02	3.300231973901456684e+01
9.390000000000000000e+02	3.239302047503150561e+01
9.400000000000000000e+02	3.180416409444475789e+01
9.410000000000000000e+02	3.123866422641834362e+01
9.420000000000000000e+02	3.069937844371730762e+01
9.430000000000000000e+02	3.018908184192455479e+01
9.440000000000000000e+02	2.971044002982471000e+01
9.450000000000000000e+02	2.926598200728206933e+01
9.460000000000000000e+02	2.885807344461065327e+01
9.470000000000000000e+02	2.848889090117303269e+01
9.480000000000000000e+02	2.816039752859988354e+01
9.490000000000000000e+02	2.787432079411067676e+01
9.500000000000000000e+02	2.763213273118818947e+01
9.510000000000000000e+02	2.743503317845461709e+01
9.520000000000000000e+02	2.728393640411252363e+01
9.530000000000000000e+02	2.717946143472645559e+01
9.540000000000000000e+02	2.712192631627370076e+01
9.550000000000000000e+02	2.711134643580614778e+01
9.560000000000000000e+02	2.714743692777194894e+01
9.570000000000000000e+02	2.722961908432454692e+01
9.580000000000000000e+02	2.735703058808761057e+01
9.590000000000000000e+02	2.752853929288430734e+01
9.600000000000000000e+02	2.774276019642474012e+01
9.610000000000000000e+02	2.799807518174798560e+01
9.620000000000000000e+02	2.829265505337990660e+01
9.630000000000000000e+02	2.862448336085265765e+01
9.640000000000000000e+02	2.899138148668468418e+01
9.650000000000000000e+02	2.939103447752624731e+01
9.660000000000000000e+02	2.982101711458708593e+01
9.670000000000000000e+02	3.027881975069740861e+01
9.680000000000000000e+02	3.076187348400831212e+01
9.690000000000000000e+02	3.126757428973164821e+01
9.700000000000000000e+02	3.179330578868458446e+01
9.710000000000000000e+02	3.233646039203897260e+01
9.720000000000000000e+02	3.289445862306602208e+01
9.730000000000000000e+02	3.346476647660338699e+01
9.740000000000000000e+02	3.404491073360061648e+01
9.750000000000000000e+02	3.463249219997008765e+01
9.760000000000000000e+02	3.522519688504255697e+01
9.770000000000000000e+02	3.582080517452978086e+01
9.780000000000000000e+02	3.641719908575566933e+01
9.790000000000000000e+02	3.701236771900316569e+01
9.800000000000000000e+02	3.760441103842642008e+01
9.810000000000000000e+02	3.819154212952521732e+01
9.820000000000000000e+02	3.877208808826344466e+01
9.830000000000000000e+02	3.934448970022708636e+01
9.840000000000000000e+02	3.990730006744179548e+01
9.850000000000000000e+02	4.045918233637938499e+01
9.860000000000000000e+02	4.099890667391346000e+01
9.870000000000000000e+02	4.152534662923889641e+01
9.880000000000000000e+02	4.203747500959971717e+01
9.890000000000000000e+02	4.253435938660848592e+01
9.900000000000000000e+02	4.301515733842383327e+01
9.910000000000000000e+02	4.347911152144956759e+01
9.920000000000000000e+02	4.392554465381822126e+01
9.930000000000000000e+02	4.435385448197020963e+01
9.940000000000000000e+02	4.476350879127707572e+01
9.950000000000000000e+02	4.515404051204366453e+01
9.960000000000000000e+02	4.552504296339158429e+01
9.970000000000000000e+02	4.587616526954440133e+01
9.980000000000000000e+02	4.620710797589750030e+01
9.990000000000000000e+02	4.651761888594766248e+01
1.000000000000000000e+03	4.680748913465778571e+01
