1100.000000	8.388000 
1098.000000	8.445000 
1096.000000	8.394000 
1094.000000	8.414000 
1092.000000	8.381000 
1090.000000	8.292000 
1088.000000	8.337999 
1086.000000	8.262000 
1084.000000	8.353000 
1082.000000	8.270000 
1080.000000	8.270000 
1078.000000	8.262000 
1076.000000	8.278000 
1074.000000	8.217000 
1072.000000	8.193000 
1070.000000	8.201000 
1068.000000	8.195000 
1066.000000	8.148000 
1064.000000	8.161000 
1062.000000	8.157999 
1060.000000	8.172000 
1058.000000	8.122000 
1056.000000	8.124000 
1054.000000	8.122000 
1052.000000	8.132000 
1050.000000	8.125999 
1048.000000	8.092000 
1046.000000	8.124000 
1044.000000	8.096000 
1042.000000	8.109000 
1040.000000	8.085000 
1038.000000	8.076000 
1036.000000	8.090999 
1034.000000	8.081000 
1032.000000	8.039000 
1030.000000	8.061000 
1028.000000	8.050000 
1026.000000	8.048000 
1024.000000	8.045000 
1022.000000	8.055000 
1020.000000	8.049000 
1018.000000	8.039000 
1016.000000	8.028000 
1014.000000	8.015000 
1012.000000	8.006000 
1010.000000	8.020000 
1008.000000	8.013000 
1006.000000	8.010999 
1004.000000	8.000999 
1002.000000	8.000999 
1000.000000	7.992000 
998.000000	 7.996000 
996.000000	 7.996000 
994.000000	 7.975000 
992.000000	 7.975000 
990.000000	 7.968000 
988.000000	 7.983999 
986.000000	 7.961000 
984.000000	 7.957000 
982.000000	 7.953000 
980.000000	 7.978000 
978.000000	 7.997999 
976.000000	 7.985000 
974.000000	 7.962000 
972.000000	 7.987000 
970.000000	 7.958000 
968.000000	 7.962000 
966.000000	 7.944000 
964.000000	 7.935000 
962.000000	 7.926000 
960.000000	 7.925000 
958.000000	 7.913000 
956.000000	 7.926000 
954.000000	 7.906000 
952.000000	 7.893999 
950.000000	 7.899000 
948.000000	 7.883000 
946.000000	 7.880000 
944.000000	 7.858000 
942.000000	 7.851000 
940.000000	 7.853000 
938.000000	 7.840000 
936.000000	 7.823000 
934.000000	 7.815000 
932.000000	 7.800000 
930.000000	 7.790999 
928.000000	 7.781000 
926.000000	 7.762000 
924.000000	 7.764000 
922.000000	 7.749000 
920.000000	 7.750999 
918.000000	 7.733000 
916.000000	 7.732000 
914.000000	 7.730000 
912.000000	 7.722999 
910.000000	 7.715000 
908.000000	 7.707000 
906.000000	 7.699000 
904.000000	 7.681000 
902.000000	 7.668000 
900.000000	 7.657000 
898.000000	 7.630000 
896.000000	 7.614999 
894.000000	 7.600000 
892.000000	 7.587000 
890.000000	 7.574000 
888.000000	 7.550999 
886.000000	 7.534000 
884.000000	 7.506000 
882.000000	 7.481999 
880.000000	 7.460000 
878.000000	 7.451000 
876.000000	 7.431999 
874.000000	 7.422000 
872.000000	 7.396000 
870.000000	 7.385000 
868.000000	 7.366000 
866.000000	 7.350000 
864.000000	 7.323000 
862.000000	 7.301000 
860.000000	 7.300000 
858.000000	 7.274999 
856.000000	 7.245000 
854.000000	 7.238000 
852.000000	 7.213000 
850.000000	 7.197000 
848.000000	 7.170999 
846.000000	 7.151000 
844.000000	 7.138000 
842.000000	 7.117999 
840.000000	 7.093000 
838.000000	 7.077000 
836.000000	 7.056999 
834.000000	 7.042000 
832.000000	 7.019000 
830.000000	 6.999000 
828.000000	 6.979000 
826.000000	 6.957000 
824.000000	 6.938999 
822.000000	 6.923999 
820.000000	 6.904000 
818.000000	 6.883999 
816.000000	 6.869000 
814.000000	 6.851000 
812.000000	 6.834000 
810.000000	 6.802000 
808.000000	 6.790000 
806.000000	 6.775000 
804.000000	 6.758999 
802.000000	 6.738000 
800.000000	 6.718000 
798.000000	 6.705000 
796.000000	 6.673999 
794.000000	 6.658000 
792.000000	 6.635000 
790.000000	 6.622999 
788.000000	 6.605999 
786.000000	 6.593000 
784.000000	 6.575000 
782.000000	 6.564000 
780.000000	 6.552000 
778.000000	 6.532999 
776.000000	 6.520000 
774.000000	 6.508000 
772.000000	 6.494999 
770.000000	 6.482000 
768.000000	 6.471000 
766.000000	 6.461000 
764.000000	 6.451000 
762.000000	 6.436000 
760.000000	 6.428000 
758.000000	 6.407000 
756.000000	 6.406000 
754.000000	 6.396000 
752.000000	 6.389000 
750.000000	 6.382000 
748.000000	 6.375999 
746.000000	 6.363000 
744.000000	 6.356000 
742.000000	 6.351000 
740.000000	 6.343000 
738.000000	 6.339000 
736.000000	 6.335000 
734.000000	 6.327000 
732.000000	 6.324000 
730.000000	 6.321000 
728.000000	 6.321000 
726.000000	 6.315000 
724.000000	 6.314000 
722.000000	 6.306000 
720.000000	 6.311000 
718.000000	 6.311000 
716.000000	 6.314000 
714.000000	 6.310000 
712.000000	 6.311000 
710.000000	 6.311999 
708.000000	 6.314000 
706.000000	 6.315000 
704.000000	 6.321000 
702.000000	 6.322000 
700.000000	 6.325000 
698.000000	 6.331000 
696.000000	 6.331000 
694.000000	 6.337000 
692.000000	 6.337000 
690.000000	 6.346000 
688.000000	 6.350000 
686.000000	 6.355000 
684.000000	 6.361999 
682.000000	 6.365000 
680.000000	 6.365000 
678.000000	 6.376999 
676.000000	 6.369000 
674.000000	 6.383000 
672.000000	 6.380000 
670.000000	 6.385000 
668.000000	 6.388000 
666.000000	 6.392000 
664.000000	 6.393000 
662.000000	 6.398000 
660.000000	 6.392000 
658.000000	 6.406000 
656.000000	 6.398000 
654.000000	 6.398000 
652.000000	 6.400000 
650.000000	 6.394000 
648.000000	 6.392000 
646.000000	 6.390000 
644.000000	 6.383999 
642.000000	 6.379000 
640.000000	 6.372000 
638.000000	 6.370000 
636.000000	 6.360000 
634.000000	 6.355000 
632.000000	 6.339000 
630.000000	 6.329999 
628.000000	 6.317000 
626.000000	 6.304000 
624.000000	 6.288000 
622.000000	 6.274000 
620.000000	 6.260000 
618.000000	 6.239999 
616.000000	 6.215000 
614.000000	 6.198000 
612.000000	 6.178000 
610.000000	 6.157000 
608.000000	 6.130000 
606.000000	 6.107000 
604.000000	 6.091000 
602.000000	 6.059000 
600.000000	 6.036000 
598.000000	 6.017000 
596.000000	 5.994000 
594.000000	 5.967000 
592.000000	 5.947000 
590.000000	 5.915999 
588.000000	 5.902000 
586.000000	 5.872999 
584.000000	 5.847000 
582.000000	 5.820000 
580.000000	 5.793000 
578.000000	 5.770000 
576.000000	 5.748000 
574.000000	 5.721000 
572.000000	 5.707000 
570.000000	 5.690000 
568.000000	 5.666000 
566.000000	 5.647000 
564.000000	 5.637000 
562.000000	 5.620000 
560.000000	 5.609999 
558.000000	 5.612000 
556.000000	 5.606000 
554.000000	 5.580000 
552.000000	 5.559000 
550.000000	 5.532999 
548.000000	 5.532999 
546.000000	 5.516000 
544.000000	 5.513000 
542.000000	 5.510000 
540.000000	 5.516999 
538.000000	 5.510000 
536.000000	 5.516000 
534.000000	 5.512000 
532.000000	 5.502000 
530.000000	 5.516999 
528.000000	 5.526000 
526.000000	 5.530000 
524.000000	 5.539000 
522.000000	 5.544000 
520.000000	 5.555000 
518.000000	 5.556000 
516.000000	 5.568000 
514.000000	 5.564000 
512.000000	 5.583000 
510.000000	 5.578000 
508.000000	 5.589000 
506.000000	 5.586000 
504.000000	 5.593999 
502.000000	 5.595000 
500.000000	 5.590000 
498.000000	 5.590000 
496.000000	 5.573000 
494.000000	 5.578000 
492.000000	 5.560000 
490.000000	 5.552000 
488.000000	 5.527000 
486.000000	 5.516000 
484.000000	 5.495000 
482.000000	 5.478000 
480.000000	 5.442000 
478.000000	 5.412999 
476.000000	 5.402000 
474.000000	 5.379000 
472.000000	 5.341000 
470.000000	 5.296000 
468.000000	 5.256000 
466.000000	 5.235000 
464.000000	 5.195000 
462.000000	 5.160000 
460.000000	 5.138000 
458.000000	 5.098000 
456.000000	 5.081000 
454.000000	 5.045999 
452.000000	 5.020000 
450.000000	 4.987000 
448.000000	 4.979000 
446.000000	 4.968999 
444.000000	 4.948000 
442.000000	 4.926000 
440.000000	 4.926000 
438.000000	 4.903000 
436.000000	 4.919000 
434.000000	 4.913000 
432.000000	 4.891000 
430.000000	 4.868000 
428.000000	 4.906000 
426.000000	 4.875999 
424.000000	 4.886000 
422.000000	 4.864000 
420.000000	 4.804000 
418.000000	 4.792000 
416.000000	 4.777000 
414.000000	 4.769000 
412.000000	 4.735000 
410.000000	 4.698000 
408.000000	 4.669000 
406.000000	 4.617000 
404.000000	 4.581000 
402.000000	 4.510000 
400.000000	 4.453000 
398.000000	 4.387000 
396.000000	 4.321000 
394.000000	 4.260000 
392.000000	 4.184000 
390.000000	 4.111000 
388.000000	 4.037000 
386.000000	 3.943000 
384.000000	 3.964000 
382.000000	 4.273000 
380.000000	 4.077999 
378.000000	 3.882000 
376.000000	 3.591000 
374.000000	 3.511000 
372.000000	 3.348000 
370.000000	 3.304000 
368.000000	 3.183000 
366.000000	 3.071000 
364.000000	 2.958000 
362.000000	 2.904000 
360.000000	 2.757000 
358.000000	 2.676000 
356.000000	 2.585000 
354.000000	 2.575000 
352.000000	 2.503000 
350.000000	 2.387000 
348.000000	 2.515000 
346.000000	 2.420000 
344.000000	 2.365000 
342.000000	 2.382000 
340.000000	 2.409000 
338.000000	 2.432000 
336.000000	 2.417000 
334.000000	 2.301000 
332.000000	 2.587000 
330.000000	 2.489000 
328.000000	 2.495000 
326.000000	 2.077000 
324.000000	 2.086000 
322.000000	 2.053000 
320.000000	 2.034000 
318.000000	 2.038000 
316.000000	 2.027000 
314.000000	 1.995000 
312.000000	 1.976000 
310.000000	 1.966000 
308.000000	 1.957000 
306.000000	 1.929000 
304.000000	 1.934000 
302.000000	 1.907000 
300.000000	 1.938000 
298.000000	 1.897000 
296.000000	 1.873000 
294.000000	 1.854000 
292.000000	 1.826000 
290.000000	 1.826000 
288.000000	 1.815000 
286.000000	 1.795000 
284.000000	 1.774000 
282.000000	 1.765000 
280.000000	 1.732000 
278.000000	 1.711000 
276.000000	 1.678000 
274.000000	 1.665000 
272.000000	 1.637000 
270.000000	 1.622000 
268.000000	 1.596000 
266.000000	 1.558000 
264.000000	 1.515000 
262.000000	 1.484000 
260.000000	 1.460000 
258.000000	 1.420000 
256.000000	 1.391000 
254.000000	 1.333000 
252.000000	 1.317000 
250.000000	 1.275000 
248.000000	 1.224000 
246.000000	 1.188000 
244.000000	 1.173000 
242.000000	 1.134000 
240.000000	 1.114000 
238.000000	 1.092000 
236.000000	 1.079000 
234.000000	 1.047000 
232.000000	 1.025000 
230.000000	 0.988000 
228.000000	 0.953000 
226.000000	 0.906000 
224.000000	 0.851000 
222.000000	 0.804000 
220.000000	 0.760000 
218.000000	 0.702000 
216.000000	 0.638000 
214.000000	 0.580000 
212.000000	 0.523000 
210.000000	 0.476000 
208.000000	 0.432999 
206.000000	 0.387000 
204.000000	 0.358000 
202.000000	 0.319000 
200.000000	 0.287000 

