1100.000000	1.160647 
1098.000000	1.160962 
1096.000000	1.158703 
1094.000000	1.163802 
1092.000000	1.165770 
1090.000000	1.168258 
1088.000000	1.167108 
1086.000000	1.169026 
1084.000000	1.164943 
1082.000000	1.169283 
1080.000000	1.172630 
1078.000000	1.175874 
1076.000000	1.176460 
1074.000000	1.176004 
1072.000000	1.177308 
1070.000000	1.178224 
1068.000000	1.176851 
1066.000000	1.180916 
1064.000000	1.179864 
1062.000000	1.179995 
1060.000000	1.183228 
1058.000000	1.182765 
1056.000000	1.183162 
1054.000000	1.182699 
1052.000000	1.183361 
1050.000000	1.183029 
1048.000000	1.185153 
1046.000000	1.186085 
1044.000000	1.186285 
1042.000000	1.187420 
1040.000000	1.186218 
1038.000000	1.187153 
1036.000000	1.186218 
1034.000000	1.186953 
1032.000000	1.187153 
1030.000000	1.188492 
1028.000000	1.187420 
1026.000000	1.188827 
1024.000000	1.188156 
1022.000000	1.187755 
1020.000000	1.187420 
1018.000000	1.188023 
1016.000000	1.188223 
1014.000000	1.187889 
1012.000000	1.187755 
1010.000000	1.187554 
1008.000000	1.187621 
1006.000000	1.187822 
1004.000000	1.187889 
1002.000000	1.188492 
1000.000000	1.187822 
998.000000	 1.187956 
996.000000	 1.187153 
994.000000	 1.187956 
992.000000	 1.186685 
990.000000	 1.186485 
988.000000	 1.186218 
986.000000	 1.186085 
984.000000	 1.185752 
982.000000	 1.185486 
980.000000	 1.184422 
978.000000	 1.180785 
976.000000	 1.182236 
974.000000	 1.181180 
972.000000	 1.181048 
970.000000	 1.180258 
968.000000	 1.180653 
966.000000	 1.181114 
964.000000	 1.181114 
962.000000	 1.180258 
960.000000	 1.179535 
958.000000	 1.180587 
956.000000	 1.179929 
954.000000	 1.178617 
952.000000	 1.178945 
950.000000	 1.179535 
948.000000	 1.178879 
946.000000	 1.177962 
944.000000	 1.178617 
942.000000	 1.178355 
940.000000	 1.178420 
938.000000	 1.178224 
936.000000	 1.178551 
934.000000	 1.177831 
932.000000	 1.178028 
930.000000	 1.178420 
928.000000	 1.179338 
926.000000	 1.179207 
924.000000	 1.178551 
922.000000	 1.179207 
920.000000	 1.179667 
918.000000	 1.180587 
916.000000	 1.181048 
914.000000	 1.182170 
912.000000	 1.182699 
910.000000	 1.182699 
908.000000	 1.181840 
906.000000	 1.182765 
904.000000	 1.181906 
902.000000	 1.181510 
900.000000	 1.181510 
898.000000	 1.181378 
896.000000	 1.180587 
894.000000	 1.180456 
892.000000	 1.179929 
890.000000	 1.180456 
888.000000	 1.180456 
886.000000	 1.181114 
884.000000	 1.181048 
882.000000	 1.181048 
880.000000	 1.181510 
878.000000	 1.181906 
876.000000	 1.182104 
874.000000	 1.183493 
872.000000	 1.184754 
870.000000	 1.185419 
868.000000	 1.186685 
866.000000	 1.187353 
864.000000	 1.188559 
862.000000	 1.189297 
860.000000	 1.190171 
858.000000	 1.191856 
856.000000	 1.192871 
854.000000	 1.193955 
852.000000	 1.194771 
850.000000	 1.196884 
848.000000	 1.198047 
846.000000	 1.199351 
844.000000	 1.200521 
842.000000	 1.202040 
840.000000	 1.203911 
838.000000	 1.205163 
836.000000	 1.206768 
834.000000	 1.208379 
832.000000	 1.210348 
830.000000	 1.212043 
828.000000	 1.213603 
826.000000	 1.215525 
824.000000	 1.217240 
822.000000	 1.219178 
820.000000	 1.220619 
818.000000	 1.222428 
816.000000	 1.225191 
814.000000	 1.226798 
812.000000	 1.228486 
810.000000	 1.230253 
808.000000	 1.232621 
806.000000	 1.234704 
804.000000	 1.236721 
802.000000	 1.238673 
800.000000	 1.240785 
798.000000	 1.242831 
796.000000	 1.246416 
794.000000	 1.248412 
792.000000	 1.250727 
790.000000	 1.253210 
788.000000	 1.255472 
786.000000	 1.257982 
784.000000	 1.260348 
782.000000	 1.262807 
780.000000	 1.264640 
778.000000	 1.267123 
776.000000	 1.269783 
774.000000	 1.271646 
772.000000	 1.273517 
770.000000	 1.275232 
768.000000	 1.277366 
766.000000	 1.278436 
764.000000	 1.280668 
762.000000	 1.282828 
760.000000	 1.284665 
758.000000	 1.286509 
756.000000	 1.288699 
754.000000	 1.290899 
752.000000	 1.292685 
750.000000	 1.294221 
748.000000	 1.295763 
746.000000	 1.297655 
744.000000	 1.300075 
742.000000	 1.301638 
740.000000	 1.303294 
738.000000	 1.304781 
736.000000	 1.306097 
734.000000	 1.307329 
732.000000	 1.308918 
730.000000	 1.310158 
728.000000	 1.311580 
726.000000	 1.312649 
724.000000	 1.313721 
722.000000	 1.314616 
720.000000	 1.315783 
718.000000	 1.316862 
716.000000	 1.317313 
714.000000	 1.318035 
712.000000	 1.318939 
710.000000	 1.319301 
708.000000	 1.319845 
706.000000	 1.320208 
704.000000	 1.320390 
702.000000	 1.320753 
700.000000	 1.320572 
698.000000	 1.320662 
696.000000	 1.320935 
694.000000	 1.320753 
692.000000	 1.320572 
690.000000	 1.320390 
688.000000	 1.319845 
686.000000	 1.319301 
684.000000	 1.318487 
682.000000	 1.317584 
680.000000	 1.316052 
678.000000	 1.315154 
676.000000	 1.315154 
674.000000	 1.314079 
672.000000	 1.313363 
670.000000	 1.311491 
668.000000	 1.310691 
666.000000	 1.309715 
664.000000	 1.307770 
662.000000	 1.306360 
660.000000	 1.305658 
658.000000	 1.303468 
656.000000	 1.302247 
654.000000	 1.300422 
652.000000	 1.298691 
650.000000	 1.297224 
648.000000	 1.295420 
646.000000	 1.293794 
644.000000	 1.292685 
642.000000	 1.290560 
640.000000	 1.289205 
638.000000	 1.288024 
636.000000	 1.286089 
634.000000	 1.284414 
632.000000	 1.283245 
630.000000	 1.282246 
628.000000	 1.280834 
626.000000	 1.279757 
624.000000	 1.278849 
622.000000	 1.278271 
620.000000	 1.277201 
618.000000	 1.276462 
616.000000	 1.276216 
614.000000	 1.275970 
612.000000	 1.276134 
610.000000	 1.276052 
608.000000	 1.276380 
606.000000	 1.276708 
604.000000	 1.277448 
602.000000	 1.278684 
600.000000	 1.279509 
598.000000	 1.281083 
596.000000	 1.282163 
594.000000	 1.283913 
592.000000	 1.286005 
590.000000	 1.287518 
588.000000	 1.289290 
586.000000	 1.291664 
584.000000	 1.294735 
582.000000	 1.297052 
580.000000	 1.299815 
578.000000	 1.302770 
576.000000	 1.306009 
574.000000	 1.309981 
572.000000	 1.312827 
570.000000	 1.316502 
568.000000	 1.320572 
566.000000	 1.323946 
564.000000	 1.328271 
562.000000	 1.332266 
560.000000	 1.334606 
558.000000	 1.337809 
556.000000	 1.341511 
554.000000	 1.346498 
552.000000	 1.350373 
550.000000	 1.354479 
548.000000	 1.358426 
546.000000	 1.362010 
544.000000	 1.365522 
542.000000	 1.368962 
540.000000	 1.371611 
538.000000	 1.373865 
536.000000	 1.377371 
534.000000	 1.380384 
532.000000	 1.382161 
530.000000	 1.384365 
528.000000	 1.385419 
526.000000	 1.386475 
524.000000	 1.386898 
522.000000	 1.387428 
520.000000	 1.387958 
518.000000	 1.388064 
516.000000	 1.388489 
514.000000	 1.387110 
512.000000	 1.386686 
510.000000	 1.385735 
508.000000	 1.382999 
506.000000	 1.381533 
504.000000	 1.379655 
502.000000	 1.376854 
500.000000	 1.374378 
498.000000	 1.372122 
496.000000	 1.368251 
494.000000	 1.366127 
492.000000	 1.362510 
490.000000	 1.359021 
488.000000	 1.356843 
486.000000	 1.353792 
484.000000	 1.350957 
482.000000	 1.348721 
480.000000	 1.345823 
478.000000	 1.345246 
476.000000	 1.343039 
474.000000	 1.343997 
472.000000	 1.343231 
470.000000	 1.343805 
468.000000	 1.344669 
466.000000	 1.346498 
464.000000	 1.349886 
462.000000	 1.354086 
460.000000	 1.356942 
458.000000	 1.363111 
456.000000	 1.368353 
454.000000	 1.375202 
452.000000	 1.380802 
450.000000	 1.390085 
448.000000	 1.396206 
446.000000	 1.401209 
444.000000	 1.407934 
442.000000	 1.416121 
440.000000	 1.425852 
438.000000	 1.430041 
436.000000	 1.437588 
434.000000	 1.443215 
432.000000	 1.447575 
430.000000	 1.451119 
428.000000	 1.452594 
426.000000	 1.458295 
424.000000	 1.460923 
422.000000	 1.464452 
420.000000	 1.477947 
418.000000	 1.477947 
416.000000	 1.478208 
414.000000	 1.476643 
412.000000	 1.473531 
410.000000	 1.472756 
408.000000	 1.470184 
406.000000	 1.470313 
404.000000	 1.470313 
402.000000	 1.467882 
400.000000	 1.471083 
398.000000	 1.472627 
396.000000	 1.477555 
394.000000	 1.485319 
392.000000	 1.495801 
390.000000	 1.507099 
388.000000	 1.521000 
386.000000	 1.540607 
384.000000	 1.531062 
382.000000	 1.453333 
380.000000	 1.497163 
378.000000	 1.555330 
376.000000	 1.592439 
374.000000	 1.622875 
372.000000	 1.632271 
370.000000	 1.680685 
368.000000	 1.713543 
366.000000	 1.729321 
364.000000	 1.750557 
362.000000	 1.799423 
360.000000	 1.825940 
358.000000	 1.868381 
356.000000	 1.909389 
354.000000	 1.929962 
352.000000	 1.972650 
350.000000	 2.008773 
348.000000	 2.007004 
346.000000	 2.045275 
344.000000	 2.054531 
342.000000	 2.079354 
340.000000	 2.038104 
338.000000	 2.054039 
336.000000	 2.057991 
334.000000	 2.032452 
332.000000	 1.988852 
330.000000	 2.015472 
328.000000	 1.925183 
326.000000	 2.671620 
324.000000	 2.636388 
322.000000	 2.735182 
320.000000	 2.703334 
318.000000	 2.777283 
316.000000	 2.694648 
314.000000	 2.701146 
312.000000	 2.823908 
310.000000	 2.835647 
308.000000	 2.847711 
306.000000	 2.832682 
304.000000	 2.838631 
302.000000	 2.863279 
300.000000	 2.793174 
298.000000	 2.850780 
296.000000	 2.950781 
294.000000	 2.844663 
292.000000	 2.892790 
290.000000	 2.879426 
288.000000	 2.872895 
286.000000	 2.931814 
284.000000	 2.787812 
282.000000	 2.886056 
280.000000	 2.913640 
278.000000	 2.946921 
276.000000	 2.906578 
274.000000	 2.974694 
272.000000	 3.026872 
270.000000	 3.130768 
268.000000	 3.031517 
266.000000	 3.065501 
264.000000	 3.229147 
262.000000	 3.267606 
260.000000	 3.173925 
258.000000	 3.207608 
256.000000	 3.267606 
254.000000	 3.267606 
252.000000	 3.251811 
250.000000	 3.221848 
248.000000	 3.366531 
246.000000	 3.366531 
244.000000	 3.408935 
242.000000	 3.356547 
240.000000	 3.376750 
238.000000	 3.292429 
236.000000	 3.214670 
234.000000	 3.244125 
232.000000	 3.167491 
230.000000	 3.161150 
228.000000	 3.161150 
226.000000	 3.161150 
224.000000	 3.221848 
222.000000	 3.200659 
220.000000	 3.154901 
218.000000	 3.259637 
216.000000	 3.154901 
214.000000	 3.236572 
212.000000	 3.148741 
210.000000	 3.167491 
208.000000	 3.207608 
206.000000	 3.113509 
204.000000	 3.013228 
202.000000	 3.008773 
200.000000	 2.958607 

